timestamp,value
2025-04-07 13:57:20.220781088,0.0
2025-04-07 13:57:20.236406088,1.049041748046875e-05
2025-04-07 13:57:20.252031088,5.918400711379945e-05
2025-04-07 13:57:20.267656088,0.0001714461832307279
2025-04-07 13:57:20.283281088,0.00035321764880791306
2025-04-07 13:57:20.298906088,0.000591530348174274
2025-04-07 13:57:20.314531088,0.0008597265114076436
2025-04-07 13:57:20.330156088,0.001124488189816475
2025-04-07 13:57:20.345781088,0.0013524261303246021
2025-04-07 13:57:20.361406088,0.0015156418085098267
2025-04-07 13:57:20.377031088,0.0015958603471517563
2025-04-07 13:57:20.392656088,0.0015860621351748705
2025-04-07 13:57:20.408281088,0.0014899792149662971
2025-04-07 13:57:20.423906088,0.0013203908456489444
2025-04-07 13:57:20.439531088,0.0010963509557768703
2025-04-07 13:57:20.455156088,0.0008399455109611154
2025-04-07 13:57:20.470781088,0.0005731239216402173
2025-04-07 13:57:20.486406088,0.0003152103163301945
2025-04-07 13:57:20.502031087,8.151499787345529e-05
2025-04-07 13:57:20.517656087,-0.00011765287490561604
2025-04-07 13:57:20.533281087,-0.00027748901629820466
2025-04-07 13:57:20.548906088,-0.000398162315832451
2025-04-07 13:57:20.564531088,-0.000483833224279806
2025-04-07 13:57:20.580156088,-0.0005413929466158152
2025-04-07 13:57:20.595781088,-0.0005788386915810406
2025-04-07 13:57:20.611406088,-0.0006040462758392096
2025-04-07 13:57:20.627031088,-0.0006239066715352237
2025-04-07 13:57:20.642656088,-0.0006435553077608347
2025-04-07 13:57:20.658281088,-0.0006661658408120275
2025-04-07 13:57:20.673906088,-0.0006931333336979151
2025-04-07 13:57:20.689531088,-0.0007243674481287599
2025-04-07 13:57:20.705156088,-0.0007586824940517545
2025-04-07 13:57:20.720781088,-0.0007941543590277433
2025-04-07 13:57:20.736406088,-0.0008285640506073833
2025-04-07 13:57:20.752031088,-0.0008597979322075844
2025-04-07 13:57:20.767656088,-0.0008859685622155666
2025-04-07 13:57:20.783281088,-0.0009055215632542968
2025-04-07 13:57:20.798906088,-0.0009175690356642008
2025-04-07 13:57:20.814531088,-0.0009220658103004098
2025-04-07 13:57:20.830156088,-0.0009196053724735975
2025-04-07 13:57:20.845781088,-0.000911233015358448
2025-04-07 13:57:20.861406088,-0.000898275407962501
2025-04-07 13:57:20.877031088,-0.0008819479262456298
2025-04-07 13:57:20.892656088,-0.0008631214732304215
2025-04-07 13:57:20.908281088,-0.0008424726547673345
2025-04-07 13:57:20.923906088,-0.000820500310510397
2025-04-07 13:57:20.939531088,-0.0007973028696142137
2025-04-07 13:57:20.955156088,-0.0007726192707195878
2025-04-07 13:57:20.970781088,-0.0007461060304194689
2025-04-07 13:57:20.986406088,-0.0007174670463427901
2025-04-07 13:57:21.002031088,-0.0006865703035145998
2025-04-07 13:57:21.017656088,-0.0006536705186590552
2025-04-07 13:57:21.033281088,-0.0006193686276674271
2025-04-07 13:57:21.048906088,-0.000584334775339812
2025-04-07 13:57:21.064531088,-0.0005491786869242787
2025-04-07 13:57:21.080156088,-0.0005143331363797188
2025-04-07 13:57:21.095781088,-0.00047983165131881833
2025-04-07 13:57:21.111406088,-0.00044534934568218887
2025-04-07 13:57:21.127031087,-0.0004104797844775021
2025-04-07 13:57:21.142656088,-0.00037486516521312296
2025-04-07 13:57:21.158281088,-0.0003383126750122756
2025-04-07 13:57:21.173906088,-0.0003010173386428505
2025-04-07 13:57:21.189531088,-0.0002635215350892395
2025-04-07 13:57:21.205156088,-0.00022643792908638716
2025-04-07 13:57:21.220781088,-0.0001903199590742588
2025-04-07 13:57:21.236406088,-0.0001555453345645219
2025-04-07 13:57:21.252031088,-0.00012209353735670447
2025-04-07 13:57:21.267656088,-8.958668331615627e-05
2025-04-07 13:57:21.283281088,-5.7566590839996934e-05
2025-04-07 13:57:21.298906088,-2.5624874979257584e-05
2025-04-07 13:57:21.314531088,6.480753654614091e-06
2025-04-07 13:57:21.330156088,3.8603495340794325e-05
2025-04-07 13:57:21.345781088,7.024811930023134e-05
2025-04-07 13:57:21.361406088,0.00010084788664244115
2025-04-07 13:57:21.377031088,0.00012989420793019235
2025-04-07 13:57:21.392656088,0.00015705291298218071
2025-04-07 13:57:21.408281088,0.0001823869242798537
2025-04-07 13:57:21.423906088,0.00020631533698178828
2025-04-07 13:57:21.439531088,0.00022933640866540372
2025-04-07 13:57:21.455156088,0.00025189752341248095
2025-04-07 13:57:21.470781088,0.0002742786309681833
2025-04-07 13:57:21.486406088,0.0002963695442304015
2025-04-07 13:57:21.502031087,0.00031771050998941064
2025-04-07 13:57:21.517656087,0.00033776898635551333
2025-04-07 13:57:21.533281087,0.0003560695331543684
2025-04-07 13:57:21.548906088,0.00037230999441817403
2025-04-07 13:57:21.564531088,0.00038658417179249227
2025-04-07 13:57:21.580156088,0.00039934093365445733
2025-04-07 13:57:21.595781088,0.00041110714664682746
2025-04-07 13:57:21.611406088,0.00042235758155584335
2025-04-07 13:57:21.627031088,0.0004333986435085535
2025-04-07 13:57:21.642656088,0.000444145523943007
2025-04-07 13:57:21.658281088,0.00045416265493258834
2025-04-07 13:57:21.673906088,0.0004629406612366438
2025-04-07 13:57:21.689531088,0.00047002616338431835
2025-04-07 13:57:21.705156088,0.0004751380765810609
2025-04-07 13:57:21.720781088,0.00047839025501161814
2025-04-07 13:57:21.736406088,0.00048025051364675164
2025-04-07 13:57:21.752031088,0.0004812637052964419
2025-04-07 13:57:21.767656088,0.00048192174290306866
2025-04-07 13:57:21.783281088,0.0004825470387004316
2025-04-07 13:57:21.798906088,0.0004830697434954345
2025-04-07 13:57:21.814531088,0.00048306852113455534
2025-04-07 13:57:21.830156088,0.00048204715130850673
2025-04-07 13:57:21.845781088,0.00047956459457054734
2025-04-07 13:57:21.861406088,0.0004753511166200042
2025-04-07 13:57:21.877031088,0.00046953101991675794
2025-04-07 13:57:21.892656088,0.0004625819274224341
2025-04-07 13:57:21.908281088,0.000455057539511472
2025-04-07 13:57:21.923906088,0.0004474576562643051
2025-04-07 13:57:21.939531088,0.0004401119367685169
2025-04-07 13:57:21.955156088,0.00043295702198520303
2025-04-07 13:57:21.970781088,0.00042557710548862815
2025-04-07 13:57:21.986406088,0.00041748094372451305
2025-04-07 13:57:22.002031088,0.0004082316590938717
2025-04-07 13:57:22.017656088,0.0003975630097556859
2025-04-07 13:57:22.033281088,0.00038560215034522116
2025-04-07 13:57:22.048906088,0.00037282868288457394
2025-04-07 13:57:22.064531088,0.00035979776293970644
2025-04-07 13:57:22.080156088,0.0003470101219136268
2025-04-07 13:57:22.095781088,0.00033479565172456205
2025-04-07 13:57:22.111406088,0.000323090614983812
2025-04-07 13:57:22.127031087,0.0003114783321507275
2025-04-07 13:57:22.142656088,0.0002994661044795066
2025-04-07 13:57:22.158281088,0.0002866151335183531
2025-04-07 13:57:22.173906088,0.0002726567327044904
2025-04-07 13:57:22.189531088,0.000257715058978647
2025-04-07 13:57:22.205156088,0.0002422663674224168
2025-04-07 13:57:22.220781088,0.00022686201555188745
2025-04-07 13:57:22.236406088,0.00021199847105890512
2025-04-07 13:57:22.252031088,0.00019800096924882382
2025-04-07 13:57:22.267656088,0.0001848007959779352
2025-04-07 13:57:22.283281088,0.00017197591660078615
2025-04-07 13:57:22.298906088,0.00015902795712463558
2025-04-07 13:57:22.314531088,0.0001455120655009523
2025-04-07 13:57:22.330156088,0.0001311532687395811
2025-04-07 13:57:22.345781088,0.00011606916814344004
2025-04-07 13:57:22.361406088,0.0001007292012218386
2025-04-07 13:57:22.377031088,8.567764598410577e-05
2025-04-07 13:57:22.392656088,7.140370144043118e-05
2025-04-07 13:57:22.408281088,5.82251486775931e-05
2025-04-07 13:57:22.423906088,4.606560105457902e-05
2025-04-07 13:57:22.439531088,3.449522046139464e-05
2025-04-07 13:57:22.455156088,2.3007698473520577e-05
2025-04-07 13:57:22.470781088,1.115012764785206e-05
2025-04-07 13:57:22.486406088,-1.360646820103284e-06
2025-04-07 13:57:22.502031087,-1.4415289115277119e-05
2025-04-07 13:57:22.517656087,-2.7552698156796396e-05
2025-04-07 13:57:22.533281087,-4.0236995118902996e-05
2025-04-07 13:57:22.548906088,-5.198741564527154e-05
2025-04-07 13:57:22.564531088,-6.249464058782905e-05
2025-04-07 13:57:22.580156088,-7.184354035416618e-05
2025-04-07 13:57:22.595781088,-8.047242590691894e-05
2025-04-07 13:57:22.611406088,-8.889607852324843e-05
2025-04-07 13:57:22.627031088,-9.75758521235548e-05
2025-04-07 13:57:22.642656088,-0.00010680327250156552
2025-04-07 13:57:22.658281088,-0.00011647734208963811
2025-04-07 13:57:22.673906088,-0.00012614521256182343
2025-04-07 13:57:22.689531088,-0.00013527920236811042
2025-04-07 13:57:22.705156088,-0.00014340666530188173
2025-04-07 13:57:22.720781088,-0.00015022627485450357
2025-04-07 13:57:22.736406088,-0.00015583079948555678
2025-04-07 13:57:22.752031088,-0.00016066631360445172
2025-04-07 13:57:22.767656088,-0.00016525524551980197
2025-04-07 13:57:22.783281088,-0.00017006642883643508
2025-04-07 13:57:22.798906088,-0.00017539874534122646
2025-04-07 13:57:22.814531088,-0.00018115839338861406
2025-04-07 13:57:22.830156088,-0.0001868995896074921
2025-04-07 13:57:22.845781088,-0.00019210153550375253
2025-04-07 13:57:22.861406088,-0.00019629822054412216
2025-04-07 13:57:22.877031088,-0.00019919485202990472
2025-04-07 13:57:22.892656088,-0.00020089049939997494
2025-04-07 13:57:22.908281088,-0.00020183739252388477
2025-04-07 13:57:22.923906088,-0.00020256391144357622
2025-04-07 13:57:22.939531088,-0.00020354462321847677
2025-04-07 13:57:22.955156088,-0.00020508393936324865
2025-04-07 13:57:22.970781088,-0.00020709336968138814
2025-04-07 13:57:22.986406088,-0.00020913223852403462
2025-04-07 13:57:23.002031088,-0.00021068462228868157
2025-04-07 13:57:23.017656088,-0.00021128923981450498
2025-04-07 13:57:23.033281088,-0.00021065573673695326
2025-04-07 13:57:23.048906088,-0.00020888744620606303
2025-04-07 13:57:23.064531088,-0.00020644059986807406
2025-04-07 13:57:23.080156088,-0.00020384736126288772
2025-04-07 13:57:23.095781088,-0.00020158587722107768
2025-04-07 13:57:23.111406088,-0.0001999639207497239
2025-04-07 13:57:23.127031087,-0.00019889615941792727
2025-04-07 13:57:23.142656088,-0.00019794481340795755
2025-04-07 13:57:23.158281088,-0.00019659668032545596
2025-04-07 13:57:23.173906088,-0.0001943929382832721
2025-04-07 13:57:23.189531088,-0.00019104548846371472
2025-04-07 13:57:23.205156088,-0.00018665973038878292
2025-04-07 13:57:23.220781088,-0.00018169372924603522
2025-04-07 13:57:23.236406088,-0.0001766812929417938
2025-04-07 13:57:23.252031088,-0.0001721019798424095
2025-04-07 13:57:23.267656088,-0.0001682648144196719
2025-04-07 13:57:23.283281088,-0.00016508548287674785
2025-04-07 13:57:23.298906088,-0.00016212703485507518
2025-04-07 13:57:23.314531088,-0.0001588768936926499
2025-04-07 13:57:23.330156088,-0.00015487671771552414
2025-04-07 13:57:23.345781088,-0.0001498387282481417
2025-04-07 13:57:23.361406088,-0.00014386836846824735
2025-04-07 13:57:23.377031088,-0.0001374236453557387
2025-04-07 13:57:23.392656088,-0.00013103809033054858
2025-04-07 13:57:23.408281088,-0.0001251908834092319
2025-04-07 13:57:23.423906088,-0.00012019046698696911
2025-04-07 13:57:23.439531088,-0.00011595179239520803
2025-04-07 13:57:23.455156088,-0.00011203705798834562
2025-04-07 13:57:23.470781088,-0.00010793266847031191
2025-04-07 13:57:23.486406088,-0.00010317909618606791
2025-04-07 13:57:23.502031087,-9.748723823577166e-05
2025-04-07 13:57:23.517656087,-9.096114081330597e-05
2025-04-07 13:57:23.533281087,-8.405726839555427e-05
2025-04-07 13:57:23.548906088,-7.730750076007098e-05
2025-04-07 13:57:23.564531088,-7.118924258975312e-05
2025-04-07 13:57:23.580156088,-6.60090590827167e-05
2025-04-07 13:57:23.595781088,-6.167993706185371e-05
2025-04-07 13:57:23.611406088,-5.776200123364106e-05
2025-04-07 13:57:23.627031088,-5.3739495342597365e-05
2025-04-07 13:57:23.642656088,-4.9150654376717284e-05
2025-04-07 13:57:23.658281088,-4.370407623355277e-05
2025-04-07 13:57:23.673906088,-3.7501424230868e-05
2025-04-07 13:57:23.689531088,-3.099670720985159e-05
2025-04-07 13:57:23.705156088,-2.4719294742681086e-05
2025-04-07 13:57:23.720781088,-1.9144019461236894e-05
2025-04-07 13:57:23.736406088,-1.457483995181974e-05
2025-04-07 13:57:23.752031088,-1.0922086403297726e-05
2025-04-07 13:57:23.767656088,-7.743190508335829e-06
2025-04-07 13:57:23.783281088,-4.519670710578794e-06
2025-04-07 13:57:23.798906088,-7.870194167480804e-07
2025-04-07 13:57:23.814531088,3.7489469377760543e-06
2025-04-07 13:57:23.830156088,8.989354682853445e-06
2025-04-07 13:57:23.845781088,1.4482991900877096e-05
2025-04-07 13:57:23.861406088,1.970330049516633e-05
2025-04-07 13:57:23.877031088,2.4178258172469214e-05
2025-04-07 13:57:23.892656088,2.7606722142081708e-05
2025-04-07 13:57:23.908281088,3.008116254932247e-05
2025-04-07 13:57:23.923906088,3.204694439773448e-05
2025-04-07 13:57:23.939531088,3.4025324566755444e-05
2025-04-07 13:57:23.955156088,3.648357596830465e-05
2025-04-07 13:57:23.970781088,3.97186195186805e-05
2025-04-07 13:57:23.986406088,4.363428888609633e-05
2025-04-07 13:57:24.002031088,4.7782054025446996e-05
2025-04-07 13:57:24.017656088,5.16379986947868e-05
2025-04-07 13:57:24.033281088,5.473270721267909e-05
2025-04-07 13:57:24.048906088,5.676761065842584e-05
2025-04-07 13:57:24.064531088,5.7837711210595444e-05
2025-04-07 13:57:24.080156088,5.8390844060340896e-05
2025-04-07 13:57:24.095781088,5.895070353290066e-05
2025-04-07 13:57:24.111406088,5.9986934502376243e-05
2025-04-07 13:57:24.127031087,6.179878982948139e-05
2025-04-07 13:57:24.142656088,6.429236964322627e-05
2025-04-07 13:57:24.158281088,6.702134851366282e-05
2025-04-07 13:57:24.173906088,6.946396752027795e-05
2025-04-07 13:57:24.189531088,7.115288462955505e-05
2025-04-07 13:57:24.205156088,7.179156091297045e-05
2025-04-07 13:57:24.220781088,7.147694122977555e-05
2025-04-07 13:57:24.236406088,7.065876707201824e-05
2025-04-07 13:57:24.252031088,6.986255175434053e-05
2025-04-07 13:57:24.267656088,6.955969001865014e-05
2025-04-07 13:57:24.283281088,7.005111547186971e-05
2025-04-07 13:57:24.298906088,7.12445325916633e-05
2025-04-07 13:57:24.314531088,7.269516208907589e-05
2025-04-07 13:57:24.330156088,7.388269295915961e-05
2025-04-07 13:57:24.345781088,7.434120198013261e-05
2025-04-07 13:57:24.361406088,7.377543806796893e-05
2025-04-07 13:57:24.377031088,7.228359754662961e-05
2025-04-07 13:57:24.392656088,7.031659333733842e-05
2025-04-07 13:57:24.408281088,6.840101559646428e-05
2025-04-07 13:57:24.423906088,6.70092849759385e-05
2025-04-07 13:57:24.439531088,6.644328095717356e-05
2025-04-07 13:57:24.455156088,6.661159568466246e-05
2025-04-07 13:57:24.470781088,6.70702283969149e-05
2025-04-07 13:57:24.486406088,6.729961023665965e-05
2025-04-07 13:57:24.502031087,6.683445099042729e-05
2025-04-07 13:57:24.517656087,6.538009620271623e-05
2025-04-07 13:57:24.533281087,6.303526606643572e-05
2025-04-07 13:57:24.548906088,6.025130278430879e-05
2025-04-07 13:57:24.564531088,5.755518941441551e-05
2025-04-07 13:57:24.580156088,5.5419655836885795e-05
2025-04-07 13:57:24.595781088,5.414681800175458e-05
2025-04-07 13:57:24.611406088,5.364544995245524e-05
2025-04-07 13:57:24.627031088,5.347167461877689e-05
2025-04-07 13:57:24.642656088,5.3105977713130414e-05
2025-04-07 13:57:24.658281088,5.208307266002521e-05
2025-04-07 13:57:24.673906088,5.010824679629877e-05
2025-04-07 13:57:24.689531088,4.728008570964448e-05
2025-04-07 13:57:24.705156088,4.4049767893739045e-05
2025-04-07 13:57:24.720781088,4.094403993804008e-05
2025-04-07 13:57:24.736406088,3.8435347960330546e-05
2025-04-07 13:57:24.752031088,3.6825476854573935e-05
2025-04-07 13:57:24.767656088,3.6022811400471255e-05
2025-04-07 13:57:24.783281088,3.558306343620643e-05
2025-04-07 13:57:24.798906088,3.4986238460987806e-05
2025-04-07 13:57:24.814531088,3.376653330633417e-05
2025-04-07 13:57:24.830156088,3.162868233630434e-05
2025-04-07 13:57:24.845781088,2.8670678148046136e-05
2025-04-07 13:57:24.861406088,2.534306258894503e-05
2025-04-07 13:57:24.877031088,2.217191649833694e-05
2025-04-07 13:57:24.892656088,1.9628985683084466e-05
2025-04-07 13:57:24.908281088,1.8015323803410865e-05
2025-04-07 13:57:24.923906088,1.7238555301446468e-05
2025-04-07 13:57:24.939531088,1.6853595298016444e-05
2025-04-07 13:57:24.955156088,1.6339636204065755e-05
2025-04-07 13:57:24.970781088,1.5230039934976958e-05
2025-04-07 13:57:24.986406088,1.322867683484219e-05
2025-04-07 13:57:25.002031088,1.0432662747916766e-05
2025-04-07 13:57:25.017656088,7.29163684809464e-06
2025-04-07 13:57:25.033281088,4.330770934757311e-06
2025-04-07 13:57:25.048906088,2.020879492192762e-06
2025-04-07 13:57:25.064531088,6.620739441132173e-07
2025-04-07 13:57:25.080156088,1.610274011909496e-07
2025-04-07 13:57:25.095781088,7.169427362896386e-08
2025-04-07 13:57:25.111406088,-1.2769783097610343e-07
2025-04-07 13:57:25.127031087,-9.047619187185774e-07
2025-04-07 13:57:25.142656088,-2.5566041585989296e-06
2025-04-07 13:57:25.158281088,-4.9870877774083056e-06
2025-04-07 13:57:25.173906088,-7.747552444925532e-06
2025-04-07 13:57:25.189531088,-1.0313807251804974e-05
2025-04-07 13:57:25.205156088,-1.2216012692078948e-05
2025-04-07 13:57:25.220781088,-1.3155027772882022e-05
2025-04-07 13:57:25.236406088,-1.3225147995399311e-05
2025-04-07 13:57:25.252031088,-1.2873377272626385e-05
2025-04-07 13:57:25.267656088,-1.2622437679965515e-05
2025-04-07 13:57:25.283281088,-1.2940885426360182e-05
2025-04-07 13:57:25.298906088,-1.4126757378107868e-05
2025-04-07 13:57:25.314531088,-1.608483580639586e-05
2025-04-07 13:57:25.330156088,-1.836736555560492e-05
2025-04-07 13:57:25.345781088,-2.045104884018656e-05
2025-04-07 13:57:25.361406088,-2.18669229070656e-05
2025-04-07 13:57:25.377031088,-2.231670805485919e-05
2025-04-07 13:57:25.392656088,-2.1895541067351587e-05
2025-04-07 13:57:25.408281088,-2.105124804074876e-05
2025-04-07 13:57:25.423906088,-2.030736141023226e-05
2025-04-07 13:57:25.439531088,-2.0133224097662605e-05
2025-04-07 13:57:25.455156088,-2.0827637854381464e-05
2025-04-07 13:57:25.470781088,-2.229613164672628e-05
2025-04-07 13:57:25.486406088,-2.4091672457871027e-05
2025-04-07 13:57:25.502031087,-2.569166463217698e-05
2025-04-07 13:57:25.517656087,-2.6627822080627084e-05
2025-04-07 13:57:25.533281087,-2.6602521757013164e-05
2025-04-07 13:57:25.548906088,-2.5711526177474298e-05
2025-04-07 13:57:25.564531088,-2.440327443764545e-05
2025-04-07 13:57:25.580156088,-2.32018774113385e-05
2025-04-07 13:57:25.595781088,-2.2577236450160854e-05
2025-04-07 13:57:25.611406088,-2.282868626934942e-05
2025-04-07 13:57:25.627031088,-2.3862263333285227e-05
2025-04-07 13:57:25.642656088,-2.5231413019355386e-05
2025-04-07 13:57:25.658281088,-2.6413994419272058e-05
2025-04-07 13:57:25.673906088,-2.6942156182485633e-05
2025-04-07 13:57:25.689531088,-2.6518675440456718e-05
2025-04-07 13:57:25.705156088,-2.5239698516088538e-05
2025-04-07 13:57:25.720781088,-2.3554015569970943e-05
2025-04-07 13:57:25.736406088,-2.1986066712997854e-05
2025-04-07 13:57:25.752031088,-2.1006049792049453e-05
2025-04-07 13:57:25.767656088,-2.0913579646730796e-05
2025-04-07 13:57:25.783281088,-2.1614945580950007e-05
2025-04-07 13:57:25.798906088,-2.266382216475904e-05
2025-04-07 13:57:25.814531088,-2.353827039769385e-05
2025-04-07 13:57:25.830156088,-2.377061355218757e-05
2025-04-07 13:57:25.845781088,-2.3063787011778913e-05
2025-04-07 13:57:25.861406088,-2.151406806660816e-05
2025-04-07 13:57:25.877031088,-1.9570350559661165e-05
2025-04-07 13:57:25.892656088,-1.7757165551302023e-05
2025-04-07 13:57:25.908281088,-1.6544774553040043e-05
2025-04-07 13:57:25.923906088,-1.623282878426835e-05
2025-04-07 13:57:25.939531088,-1.67276339197997e-05
2025-04-07 13:57:25.955156088,-1.758286998665426e-05
2025-04-07 13:57:25.970781088,-1.8276574337505735e-05
2025-04-07 13:57:25.986406088,-1.834102840803098e-05
2025-04-07 13:57:26.002031088,-1.7479105736128986e-05
2025-04-07 13:57:26.017656088,-1.578700539539568e-05
2025-04-07 13:57:26.033281088,-1.3713527550862636e-05
2025-04-07 13:57:26.048906088,-1.1783083209593315e-05
2025-04-07 13:57:26.064531088,-1.046580382535467e-05
2025-04-07 13:57:26.080156088,-1.0061196917376947e-05
2025-04-07 13:57:26.095781088,-1.0475404451426584e-05
2025-04-07 13:57:26.111406088,-1.1261924555583391e-05
2025-04-07 13:57:26.127031087,-1.1898603588633705e-05
2025-04-07 13:57:26.142656088,-1.1917518349946477e-05
2025-04-07 13:57:26.158281088,-1.1021324098692276e-05
2025-04-07 13:57:26.173906088,-9.305987077823374e-06
2025-04-07 13:57:26.189531088,-7.220067345770076e-06
2025-04-07 13:57:26.205156088,-5.287720341584645e-06
2025-04-07 13:57:26.220781088,-3.978816039307276e-06
2025-04-07 13:57:26.236406088,-3.592587972889305e-06
2025-04-07 13:57:26.252031088,-4.034896846860647e-06
2025-04-07 13:57:26.267656088,-4.858950887864921e-06
2025-04-07 13:57:26.283281088,-5.54229927729466e-06
2025-04-07 13:57:26.298906088,-5.616714588541072e-06
2025-04-07 13:57:26.314531088,-4.784541488334071e-06
2025-04-07 13:57:26.330156088,-3.1414301702170633e-06
2025-04-07 13:57:26.345781088,-1.1356189588695997e-06
2025-04-07 13:57:26.361406088,7.090608278303989e-07
2025-04-07 13:57:26.377031088,1.9230690213589696e-06
2025-04-07 13:57:26.392656088,2.207504849138786e-06
2025-04-07 13:57:26.408281088,1.6568415048823226e-06
2025-04-07 13:57:26.423906088,7.182065928645898e-07
2025-04-07 13:57:26.439531088,-8.561028153053485e-08
2025-04-07 13:57:26.455156088,-2.8604313229152467e-07
2025-04-07 13:57:26.470781088,4.149026153754676e-07
2025-04-07 13:57:26.486406088,1.921913963087718e-06
2025-04-07 13:57:26.502031087,3.78709069082106e-06
2025-04-07 13:57:26.517656087,5.486937880050391e-06
2025-04-07 13:57:26.533281087,6.55224857837311e-06
2025-04-07 13:57:26.548906088,6.6844536377175245e-06
2025-04-07 13:57:26.564531088,5.978355602564989e-06
2025-04-07 13:57:26.580156088,4.881408585788449e-06
2025-04-07 13:57:26.595781088,3.916723926522536e-06
2025-04-07 13:57:26.611406088,3.5531850244296947e-06
2025-04-07 13:57:26.627031088,4.0890995478548575e-06
2025-04-07 13:57:26.642656088,5.4294632718665525e-06
2025-04-07 13:57:26.658281088,7.126679975044681e-06
2025-04-07 13:57:26.673906088,8.657551916257944e-06
2025-04-07 13:57:26.689531088,9.553165000397712e-06
2025-04-07 13:57:26.705156088,9.515235433354974e-06
2025-04-07 13:57:26.720781088,8.638844519737177e-06
2025-04-07 13:57:26.736406088,7.3717183113330975e-06
2025-04-07 13:57:26.752031088,6.237234174477635e-06
2025-04-07 13:57:26.767656088,5.704533123207511e-06
2025-04-07 13:57:26.783281088,6.07217180004227e-06
2025-04-07 13:57:26.798906088,7.2453904067515396e-06
2025-04-07 13:57:26.814531088,8.776825779932551e-06
2025-04-07 13:57:26.830156088,1.0143507097382098e-05
2025-04-07 13:57:26.845781088,1.0876738087972626e-05
2025-04-07 13:57:26.861406088,1.0678446415113285e-05
2025-04-07 13:57:26.877031088,9.643913472245913e-06
2025-04-07 13:57:26.892656088,8.221059943025466e-06
2025-04-07 13:57:26.908281088,6.933445547474548e-06
2025-04-07 13:57:26.923906088,6.250386832107324e-06
2025-04-07 13:57:26.939531088,6.470608241215814e-06
2025-04-07 13:57:26.955156088,7.499506864405703e-06
2025-04-07 13:57:26.970781088,8.889869604900014e-06
2025-04-07 13:57:26.986406088,1.0118865247932263e-05
2025-04-07 13:57:27.002031088,1.0717929399106652e-05
2025-04-07 13:57:27.017656088,1.038911250361707e-05
2025-04-07 13:57:27.033281088,9.227808732248377e-06
2025-04-07 13:57:27.048906088,7.682043360546231e-06
2025-04-07 13:57:27.064531088,6.275471605476923e-06
2025-04-07 13:57:27.080156088,5.4774991440353915e-06
2025-04-07 13:57:27.095781088,5.586929091805359e-06
2025-04-07 13:57:27.111406088,6.509227659989847e-06
2025-04-07 13:57:27.127031087,7.797243597451597e-06
2025-04-07 13:57:27.142656088,8.928200259106234e-06
2025-04-07 13:57:27.158281088,9.433577361050993e-06
2025-04-07 13:57:27.173906088,9.015462637762539e-06
2025-04-07 13:57:27.189531088,7.76928209234029e-06
2025-04-07 13:57:27.205156088,6.1430791902239434e-06
2025-04-07 13:57:27.220781088,4.660527338273823e-06
2025-04-07 13:57:27.236406088,3.791038579947781e-06
2025-04-07 13:57:27.252031088,3.833415576082189e-06
2025-04-07 13:57:27.267656088,4.693117261922453e-06
2025-04-07 13:57:27.283281088,5.9229787439107895e-06
2025-04-07 13:57:27.298906088,7.000202458584681e-06
2025-04-07 13:57:27.314531088,7.4562426561897155e-06
2025-04-07 13:57:27.330156088,6.993152055656537e-06
2025-04-07 13:57:27.345781088,5.706317097065039e-06
2025-04-07 13:57:27.361406088,4.043738044856582e-06
2025-04-07 13:57:27.377031088,2.5290348730777623e-06
2025-04-07 13:57:27.392656088,1.6315639186359476e-06
2025-04-07 13:57:27.408281088,1.650066678848816e-06
2025-04-07 13:57:27.423906088,2.4899368327169213e-06
2025-04-07 13:57:27.439531088,3.7039378639747156e-06
2025-04-07 13:57:27.455156088,4.769196493725758e-06
2025-04-07 13:57:27.470781088,5.217087164055556e-06
2025-04-07 13:57:27.486406088,4.749578693008516e-06
2025-04-07 13:57:27.502031087,3.4619711186678614e-06
2025-04-07 13:57:27.517656087,1.8021735286311014e-06
2025-04-07 13:57:27.533281087,2.9371221899054945e-07
2025-04-07 13:57:27.548906088,-5.941544714005431e-07
2025-04-07 13:57:27.564531088,-5.627848622680176e-07
2025-04-07 13:57:27.580156088,2.931119524873793e-07
2025-04-07 13:57:27.595781088,1.526194409962045e-06
2025-04-07 13:57:27.611406088,2.6134819108847296e-06
2025-04-07 13:57:27.627031088,3.0862397579767276e-06
2025-04-07 13:57:27.642656088,2.64632626567618e-06
2025-04-07 13:57:27.658281088,1.388928467349615e-06
2025-04-07 13:57:27.673906088,-2.3815800886950456e-07
2025-04-07 13:57:27.689531088,-1.7115213495344506e-06
2025-04-07 13:57:27.705156088,-2.5620188353059348e-06
2025-04-07 13:57:27.720781088,-2.4911250875447877e-06
2025-04-07 13:57:27.736406088,-1.5936661839077715e-06
2025-04-07 13:57:27.752031088,-3.171003299939912e-07
2025-04-07 13:57:27.767656088,8.154748911692877e-07
2025-04-07 13:57:27.783281088,1.3352075711736688e-06
2025-04-07 13:57:27.798906088,9.438397228223039e-07
2025-04-07 13:57:27.814531088,-2.63557922153268e-07
2025-04-07 13:57:27.830156088,-1.8393050140730338e-06
2025-04-07 13:57:27.845781088,-3.260104676883202e-06
2025-04-07 13:57:27.861406088,-4.056927537021693e-06
2025-04-07 13:57:27.877031088,-3.931360879505519e-06
2025-04-07 13:57:27.892656088,-2.9783416266582208e-06
2025-04-07 13:57:27.908281088,-1.6454391698061954e-06
2025-04-07 13:57:27.923906088,-4.558589807857061e-07
2025-04-07 13:57:27.939531088,1.2144028005423024e-07
2025-04-07 13:57:27.955156088,-2.1190430743445177e-07
2025-04-07 13:57:27.970781088,-1.3609246707346756e-06
2025-04-07 13:57:27.986406088,-2.8780416414520005e-06
2025-04-07 13:57:28.002031088,-4.240057023707777e-06
2025-04-07 13:57:28.017656088,-4.978038759873016e-06
2025-04-07 13:57:28.033281088,-4.7936669034243096e-06
2025-04-07 13:57:28.048906088,-3.7819718272658065e-06
2025-04-07 13:57:28.064531088,-2.390610461588949e-06
2025-04-07 13:57:28.080156088,-1.1428751349740196e-06
2025-04-07 13:57:28.095781088,-5.078079539089231e-07
2025-04-07 13:57:28.111406088,-7.838534656912088e-07
2025-04-07 13:57:28.127031087,-1.8761222690955037e-06
2025-04-07 13:57:28.142656088,-3.3371102290402632e-06
2025-04-07 13:57:28.158281088,-4.643691681849305e-06
2025-04-07 13:57:28.173906088,-5.327003691490972e-06
2025-04-07 13:57:28.189531088,-5.0887947509181686e-06
2025-04-07 13:57:28.205156088,-4.0241575334221125e-06
2025-04-07 13:57:28.220781088,-2.5808094505919144e-06
2025-04-07 13:57:28.236406088,-1.2821014934161212e-06
2025-04-07 13:57:28.252031088,-5.97130792812095e-07
2025-04-07 13:57:28.267656088,-8.243932825280353e-07
2025-04-07 13:57:28.283281088,-1.8690473098104121e-06
2025-04-07 13:57:28.298906088,-3.2836351238074712e-06
2025-04-07 13:57:28.314531088,-4.5450733523466624e-06
2025-04-07 13:57:28.330156088,-5.1845381676685065e-06
2025-04-07 13:57:28.345781088,-4.903813987766625e-06
2025-04-07 13:57:28.361406088,-3.7980273646098794e-06
2025-04-07 13:57:28.377031088,-2.3149266326072393e-06
2025-04-07 13:57:28.392656088,-9.778893854672788e-07
2025-04-07 13:57:28.408281088,-2.5603731046430767e-07
2025-04-07 13:57:28.423906088,-4.4788725972466636e-07
2025-04-07 13:57:28.439531088,-1.458616679883562e-06
2025-04-07 13:57:28.455156088,-2.8407832814991707e-06
2025-04-07 13:57:28.470781088,-4.071317107445793e-06
2025-04-07 13:57:28.486406088,-4.681404789153021e-06
2025-04-07 13:57:28.502031087,-4.372838702693116e-06
2025-04-07 13:57:28.517656087,-3.2407492653874215e-06
2025-04-07 13:57:28.533281087,-1.7328884496237151e-06
2025-04-07 13:57:28.548906088,-3.7263339436321985e-07
2025-04-07 13:57:28.564531088,3.7089671423018444e-07
2025-04-07 13:57:28.580156088,1.9918979887734167e-07
2025-04-07 13:57:28.595781088,-7.929252205940429e-07
2025-04-07 13:57:28.611406088,-2.157996732421452e-06
2025-04-07 13:57:28.627031088,-3.3729427286743885e-06
2025-04-07 13:57:28.642656088,-3.968937107856618e-06
2025-04-07 13:57:28.658281088,-3.647755875135772e-06
2025-04-07 13:57:28.673906088,-2.504512849554885e-06
2025-04-07 13:57:28.689531088,-9.869395398709457e-07
2025-04-07 13:57:28.705156088,3.816076059592888e-07
2025-04-07 13:57:28.720781088,1.1320321391394828e-06
2025-04-07 13:57:28.736406088,9.658463113737525e-07
2025-04-07 13:57:28.752031088,-2.2094354790169746e-08
2025-04-07 13:57:28.767656088,-1.3843106216882006e-06
2025-04-07 13:57:28.783281088,-2.5976919459935743e-06
2025-04-07 13:57:28.798906088,-3.19338164445071e-06
2025-04-07 13:57:28.814531088,-2.873124458346865e-06
2025-04-07 13:57:28.830156088,-1.7320023744105129e-06
2025-04-07 13:57:28.845781088,-2.1771302272100002e-07
2025-04-07 13:57:28.861406088,1.1464217095635831e-06
2025-04-07 13:57:28.877031088,1.8913410713139456e-06
2025-04-07 13:57:28.892656088,1.7185930119012482e-06
2025-04-07 13:57:28.908281088,7.230703431559959e-07
2025-04-07 13:57:28.923906088,-6.47710066914442e-07
2025-04-07 13:57:28.939531088,-1.8705994762058253e-06
2025-04-07 13:57:28.955156088,-2.4767023205640726e-06
2025-04-07 13:57:28.970781088,-2.1677242330042645e-06
2025-04-07 13:57:28.986406088,-1.038707068801159e-06
2025-04-07 13:57:29.002031088,4.626915597327752e-07
2025-04-07 13:57:29.017656088,1.813189783206326e-06
2025-04-07 13:57:29.033281088,2.5437670956307556e-06
2025-04-07 13:57:29.048906088,2.3560121462651296e-06
2025-04-07 13:57:29.064531088,1.344857537333155e-06
2025-04-07 13:57:29.080156088,-4.2138935896218754e-08
2025-04-07 13:57:29.095781088,-1.281788399865036e-06
2025-04-07 13:57:29.111406088,-1.9051549315918237e-06
2025-04-07 13:57:29.127031087,-1.6139047147589736e-06
2025-04-07 13:57:29.142656088,-5.030394731875276e-07
2025-04-07 13:57:29.158281088,9.79822175395384e-07
2025-04-07 13:57:29.173906088,2.3114373561838875e-06
2025-04-07 13:57:29.189531088,3.0228243304009084e-06
2025-04-07 13:57:29.205156088,2.815610059769824e-06
2025-04-07 13:57:29.220781088,1.7847646631707903e-06
2025-04-07 13:57:29.236406088,3.77881860913476e-07
2025-04-07 13:57:29.252031088,-8.818127525955788e-07
2025-04-07 13:57:29.267656088,-1.5253477840815322e-06
2025-04-07 13:57:29.283281088,-1.2543544016807573e-06
2025-04-07 13:57:29.298906088,-1.6380045053665526e-07
2025-04-07 13:57:29.314531088,1.2987286481802585e-06
2025-04-07 13:57:29.330156088,2.6100228751602117e-06
2025-04-07 13:57:29.345781088,3.3011317555065034e-06
2025-04-07 13:57:29.361406088,3.0737130600755336e-06
2025-04-07 13:57:29.377031088,2.0227669210726162e-06
2025-04-07 13:57:29.392656088,5.959166173852282e-07
2025-04-07 13:57:29.408281088,-6.835844033048488e-07
2025-04-07 13:57:29.423906088,-1.3467376902553951e-06
2025-04-07 13:57:29.439531088,-1.095147808882757e-06
2025-04-07 13:57:29.455156088,-2.3757593226036988e-08
2025-04-07 13:57:29.470781088,1.4198717508406844e-06
2025-04-07 13:57:29.486406088,2.7125529413751792e-06
2025-04-07 13:57:29.502031087,3.3853575587272644e-06
2025-04-07 13:57:29.517656087,3.1399640647578053e-06
2025-04-07 13:57:29.533281087,2.0713932826765813e-06
2025-04-07 13:57:29.548906088,6.272873633861309e-07
2025-04-07 13:57:29.564531088,-6.690825102850795e-07
2025-04-07 13:57:29.580156088,-1.3487014030033606e-06
2025-04-07 13:57:29.595781088,-1.113158305088291e-06
2025-04-07 13:57:29.611406088,-5.7380930229555815e-08
2025-04-07 13:57:29.627031088,1.3710831581192906e-06
2025-04-07 13:57:29.642656088,2.6490592972550076e-06
2025-04-07 13:57:29.658281088,3.3076310046453727e-06
2025-04-07 13:57:29.673906088,3.0484873150271596e-06
2025-04-07 13:57:29.689531088,1.9666576918098144e-06
2025-04-07 13:57:29.705156088,5.097929260955425e-07
2025-04-07 13:57:29.720781088,-7.988284096427378e-07
2025-04-07 13:57:29.736406088,-1.4901848999215872e-06
2025-04-07 13:57:29.752031088,-1.2658597370318603e-06
2025-04-07 13:57:29.767656088,-2.2077665562392212e-07
2025-04-07 13:57:29.783281088,1.1975207598879933e-06
2025-04-07 13:57:29.798906088,2.4658602342242375e-06
2025-04-07 13:57:29.814531088,3.1153272175288294e-06
2025-04-07 13:57:29.830156088,2.8476119950937573e-06
2025-04-07 13:57:29.845781088,1.7577440303284675e-06
2025-04-07 13:57:29.861406088,2.933732048404636e-07
2025-04-07 13:57:29.877031088,-1.022223614199902e-06
2025-04-07 13:57:29.892656088,-1.7200270576722687e-06
2025-04-07 13:57:29.908281088,-1.5016239558462985e-06
2025-04-07 13:57:29.923906088,-4.619416813511634e-07
2025-04-07 13:57:29.939531088,9.514711223346239e-07
2025-04-07 13:57:29.955156088,2.215437234553974e-06
2025-04-07 13:57:29.970781088,2.8610354547708994e-06
2025-04-07 13:57:29.986406088,2.5899494175973814e-06
2025-04-07 13:57:30.002031088,1.4972013104852522e-06
2025-04-07 13:57:30.017656088,3.043328433705028e-08
2025-04-07 13:57:30.033281088,-1.2870859791291878e-06
2025-04-07 13:57:30.048906088,-1.9863464331137948e-06
2025-04-07 13:57:30.064531088,-1.7689435480860993e-06
2025-04-07 13:57:30.080156088,-7.29815155864344e-07
2025-04-07 13:57:30.095781088,6.834796977273072e-07
2025-04-07 13:57:30.111406088,1.9477529349387623e-06
2025-04-07 13:57:30.127031087,2.594072611827869e-06
2025-04-07 13:57:30.142656088,2.3241107101057423e-06
2025-04-07 13:57:30.158281088,1.232877366419416e-06
2025-04-07 13:57:30.173906088,-2.319980012543965e-07
2025-04-07 13:57:30.189531088,-1.5472592167498078e-06
2025-04-07 13:57:30.205156088,-2.2439087388193e-06
2025-04-07 13:57:30.220781088,-2.0235559077264043e-06
2025-04-07 13:57:30.236406088,-9.81151060841512e-07
2025-04-07 13:57:30.252031088,4.3573322727752384e-07
2025-04-07 13:57:30.267656088,1.7038952364600846e-06
2025-04-07 13:57:30.283281088,2.3543891529698158e-06
2025-04-07 13:57:30.298906088,2.088872861349955e-06
2025-04-07 13:57:30.314531088,1.002343196887523e-06
2025-04-07 13:57:30.330156088,-4.575842922349693e-07
2025-04-07 13:57:30.345781088,-1.7676672996458365e-06
2025-04-07 13:57:30.361406088,-2.458922381265438e-06
2025-04-07 13:57:30.377031088,-2.232972292404156e-06
2025-04-07 13:57:30.392656088,-1.1847819223476108e-06
2025-04-07 13:57:30.408281088,2.3806228455214296e-07
2025-04-07 13:57:30.423906088,1.51234496570396e-06
2025-04-07 13:57:30.439531088,2.1691066649509594e-06
2025-04-07 13:57:30.455156088,1.9099913970421767e-06
2025-04-07 13:57:30.470781088,8.299828095914563e-07
2025-04-07 13:57:30.486406088,-6.233169642655412e-07
2025-04-07 13:57:30.502031087,-1.9266788058303064e-06
2025-04-07 13:57:30.517656087,-2.6111322313226992e-06
2025-04-07 13:57:30.533281087,-2.378313183726277e-06
2025-04-07 13:57:30.548906088,-1.323198603131459e-06
2025-04-07 13:57:30.564531088,1.0661301530490164e-07
2025-04-07 13:57:30.580156088,1.387894030813186e-06
2025-04-07 13:57:30.595781088,2.0516729364317143e-06
2025-04-07 13:57:30.611406088,1.7995826055994257e-06
2025-04-07 13:57:30.627031088,7.265953172463924e-07
2025-04-07 13:57:30.642656088,-7.196977094281465e-07
2025-04-07 13:57:30.658281088,-2.0160782696621027e-06
2025-04-07 13:57:30.673906088,-2.693586111490731e-06
2025-04-07 13:57:30.689531088,-2.4538674097129842e-06
2025-04-07 13:57:30.705156088,-1.391908426739974e-06
2025-04-07 13:57:30.720781088,4.4682792577077635e-08
2025-04-07 13:57:30.736406088,1.3326696262083715e-06
2025-04-07 13:57:30.752031088,2.003072040679399e-06
2025-04-07 13:57:30.767656088,1.7575146102899453e-06
2025-04-07 13:57:30.783281088,6.909610874572536e-07
2025-04-07 13:57:30.798906088,-7.490046982638887e-07
2025-04-07 13:57:30.814531088,-2.0391714770084945e-06
2025-04-07 13:57:30.830156088,-2.7105861590825953e-06
2025-04-07 13:57:30.845781088,-2.464900717313867e-06
2025-04-07 13:57:30.861406088,-1.3971084626973607e-06
2025-04-07 13:57:30.877031088,4.517687557381578e-08
2025-04-07 13:57:30.892656088,1.3387131048148149e-06
2025-04-07 13:57:30.908281088,2.0145150756434305e-06
2025-04-07 13:57:30.923906088,1.7742027011991013e-06
2025-04-07 13:57:30.939531088,7.127355274860747e-07
2025-04-07 13:57:30.955156088,-7.223063676065067e-07
2025-04-07 13:57:30.970781088,-2.0077159206266515e-06
2025-04-07 13:57:30.986406088,-2.6745431114250096e-06
2025-04-07 13:57:31.002031088,-2.4244429823738756e-06
2025-04-07 13:57:31.017656088,-1.3524115729524055e-06
2025-04-07 13:57:31.033281088,9.393534128321335e-08
2025-04-07 13:57:31.048906088,1.3913537486587302e-06
2025-04-07 13:57:31.064531088,2.0708569081762107e-06
2025-04-07 13:57:31.080156088,1.83406291398569e-06
2025-04-07 13:57:31.095781088,7.759308573440649e-07
2025-04-07 13:57:31.111406088,-6.559599796673865e-07
2025-04-07 13:57:31.127031087,-1.938402419909835e-06
2025-04-07 13:57:31.142656088,-2.6024465569207678e-06
2025-04-07 13:57:31.158281088,-2.349747319385642e-06
2025-04-07 13:57:31.173906088,-1.2752998372889124e-06
2025-04-07 13:57:31.189531088,1.7328056856058538e-07
2025-04-07 13:57:31.205156088,1.4727510233569774e-06
2025-04-07 13:57:31.220781088,2.1541263777180575e-06
2025-04-07 13:57:31.236406088,1.9190272269042907e-06
2025-04-07 13:57:31.252031088,8.624135716672754e-07
2025-04-07 13:57:31.267656088,-5.681336006091442e-07
2025-04-07 13:57:31.283281088,-1.8494047253625467e-06
2025-04-07 13:57:31.298906088,-2.512447281333152e-06
2025-04-07 13:57:31.314531088,-2.25891358240915e-06
2025-04-07 13:57:31.330156088,-1.183795575343538e-06
2025-04-07 13:57:31.345781088,2.6529437491262797e-07
2025-04-07 13:57:31.361406088,1.5651165767849307e-06
2025-04-07 13:57:31.377031088,2.2466892914962955e-06
2025-04-07 13:57:31.392656088,2.011635842791293e-06
2025-04-07 13:57:31.408281088,9.549207788950298e-07
2025-04-07 13:57:31.423906088,-4.7587082008249126e-07
2025-04-07 13:57:31.439531088,-1.7575255242263665e-06
2025-04-07 13:57:31.455156088,-2.4210864921769826e-06
2025-04-07 13:57:31.470781088,-2.168202172470046e-06
2025-04-07 13:57:31.486406088,-1.093860646506073e-06
2025-04-07 13:57:31.502031087,3.5433072298474144e-07
2025-04-07 13:57:31.517656087,1.653136905588326e-06
2025-04-07 13:57:31.533281087,2.333580368940602e-06
2025-04-07 13:57:31.548906088,2.0972895526938373e-06
2025-04-07 13:57:31.564531088,1.0392334388598101e-06
2025-04-07 13:57:31.580156088,-3.9299811760429293e-07
2025-04-07 13:57:31.595781088,-1.6761869119363837e-06
2025-04-07 13:57:31.611406088,-2.34137155530334e-06
2025-04-07 13:57:31.627031088,-2.090195266646333e-06
2025-04-07 13:57:31.642656088,-1.01764157989237e-06
2025-04-07 13:57:31.658281088,4.2868737182288896e-07
2025-04-07 13:57:31.673906088,1.7255611055588815e-06
2025-04-07 13:57:31.689531088,2.4040068637987133e-06
2025-04-07 13:57:31.705156088,2.1656578610418364e-06
2025-04-07 13:57:31.720781088,1.105488081520889e-06
2025-04-07 13:57:31.736406088,-3.2890807233343367e-07
2025-04-07 13:57:31.752031088,-1.614307620911859e-06
2025-04-07 13:57:31.767656088,-2.2817448552814312e-06
2025-04-07 13:57:31.783281088,-2.0328586742834887e-06
2025-04-07 13:57:31.798906088,-9.626273822505027e-07
2025-04-07 13:57:31.814531088,4.81350980408024e-07
2025-04-07 13:57:31.830156088,1.7758504782250384e-06
2025-04-07 13:57:31.845781088,2.4519029011571547e-06
2025-04-07 13:57:31.861406088,2.211146011177334e-06
2025-04-07 13:57:31.877031088,1.148557203123346e-06
2025-04-07 13:57:31.892656088,-2.882648004742805e-07
2025-04-07 13:57:31.908281088,-1.576092927280115e-06
2025-04-07 13:57:31.923906088,-2.2459573756350437e-06
2025-04-07 13:57:31.939531088,-1.9994927242805716e-06
2025-04-07 13:57:31.955156088,-9.316736395703629e-07
2025-04-07 13:57:31.970781088,5.099046802570228e-07
2025-04-07 13:57:31.986406088,1.8020199377133395e-06
2025-04-07 13:57:32.002031088,2.4757071059866576e-06
2025-04-07 13:57:32.017656088,2.2326066755340435e-06
2025-04-07 13:57:32.033281088,1.1677002476062626e-06
2025-04-07 13:57:32.048906088,-2.714107267820509e-07
2025-04-07 13:57:32.064531088,-1.561496560498199e-06
2025-04-07 13:57:32.080156088,-2.2335843823384494e-06
2025-04-07 13:57:32.095781088,-1.9893066109943902e-06
2025-04-07 13:57:32.111406088,-9.236357527697692e-07
2025-04-07 13:57:32.127031087,5.158361773283104e-07
2025-04-07 13:57:32.142656088,1.8058888144878438e-06
2025-04-07 13:57:32.158281088,2.4775595193204936e-06
2025-04-07 13:57:32.173906088,2.2324907149595674e-06
2025-04-07 13:57:32.189531088,1.165665480584721e-06
2025-04-07 13:57:32.205156088,-2.7531291380000766e-07
2025-04-07 13:57:32.220781088,-1.5672128483856795e-06
2025-04-07 13:57:32.236406088,-2.241059974039672e-06
2025-04-07 13:57:32.252031088,-1.998485004151007e-06
2025-04-07 13:57:32.267656088,-9.344594218418933e-07
2025-04-07 13:57:32.283281088,5.03425667375268e-07
2025-04-07 13:57:32.298906088,1.791951035556849e-06
2025-04-07 13:57:32.314531088,2.46215518018289e-06
2025-04-07 13:57:32.330156088,2.2156816612550756e-06
2025-04-07 13:57:32.345781088,1.1475135579530615e-06
2025-04-07 13:57:32.361406088,-2.947449502244126e-07
2025-04-07 13:57:32.377031088,-1.587862016094732e-06
2025-04-07 13:57:32.392656088,-2.2628628357779235e-06
2025-04-07 13:57:32.408281088,-2.021378122663009e-06
2025-04-07 13:57:32.423906088,-9.583786777511705e-07
2025-04-07 13:57:32.439531088,4.785439386978396e-07
2025-04-07 13:57:32.455156088,1.7661704987403937e-06
2025-04-07 13:57:32.470781088,2.435539272482856e-06
2025-04-07 13:57:32.486406088,2.188293365179561e-06
2025-04-07 13:57:32.502031087,1.1194160833838396e-06
2025-04-07 13:57:32.517656087,-3.23489530273946e-07
2025-04-07 13:57:32.533281087,-1.6171920833585318e-06
2025-04-07 13:57:32.548906088,-2.2927174541109707e-06
2025-04-07 13:57:32.564531088,-2.0516972654149868e-06
2025-04-07 13:57:32.580156088,-9.891027730191126e-07
2025-04-07 13:57:32.595781088,4.4747321226168424e-07
2025-04-07 13:57:32.611406088,1.73481078036275e-06
2025-04-07 13:57:32.627031088,2.4039468371483963e-06
2025-04-07 13:57:32.642656088,2.1565235783782555e-06
2025-04-07 13:57:32.658281088,1.0875230600504437e-06
2025-04-07 13:57:32.673906088,-3.554523573257029e-07
2025-04-07 13:57:32.689531088,-1.6491726455569733e-06
2025-04-07 13:57:32.705156088,-2.324665047126473e-06
2025-04-07 13:57:32.720781088,-2.083562321786303e-06
2025-04-07 13:57:32.736406088,-1.0208375442744e-06
2025-04-07 13:57:32.752031088,4.159157924732426e-07
2025-04-07 13:57:32.767656088,1.7034759594025672e-06
2025-04-07 13:57:32.783281088,2.372878498135833e-06
2025-04-07 13:57:32.798906088,2.1257637854432687e-06
2025-04-07 13:57:32.814531088,1.0571125130809378e-06
2025-04-07 13:57:32.830156088,-3.854745500575518e-07
2025-04-07 13:57:32.845781088,-1.678768967394717e-06
2025-04-07 13:57:32.861406088,-2.353799800403067e-06
2025-04-07 13:57:32.877031088,-2.1122016278241063e-06
2025-04-07 13:57:32.892656088,-1.048948888637824e-06
2025-04-07 13:57:32.908281088,3.883633326040581e-07
2025-04-07 13:57:32.923906088,1.6765116015449166e-06
2025-04-07 13:57:32.939531088,2.3465299818781205e-06
2025-04-07 13:57:32.955156088,2.1000571450713323e-06
2025-04-07 13:57:32.970781088,1.0320718502043746e-06
2025-04-07 13:57:32.986406088,-4.098264980711974e-07
2025-04-07 13:57:33.002031088,-1.7024112821673043e-06
2025-04-07 13:57:33.017656088,-2.3767133825458586e-06
2025-04-07 13:57:33.033281088,-2.1343685148167424e-06
2025-04-07 13:57:33.048906088,-1.070353391696699e-06
2025-04-07 13:57:33.064531088,3.677355380204972e-07
2025-04-07 13:57:33.080156088,1.65667347573617e-06
2025-04-07 13:57:33.095781088,2.327492666154285e-06
2025-04-07 13:57:33.111406088,2.0818301891267765e-06
2025-04-07 13:57:33.127031087,1.0146641216124408e-06
2025-04-07 13:57:33.142656088,-4.26408178100246e-07
2025-04-07 13:57:33.158281088,-1.7181615703520947e-06
2025-04-07 13:57:33.173906088,-2.391628186160233e-06
2025-04-07 13:57:33.189531088,-2.1484454464371083e-06
2025-04-07 13:57:33.205156088,-1.0835913144546794e-06
2025-04-07 13:57:33.220781088,3.5533639675122686e-07
2025-04-07 13:57:33.236406088,1.645111410653044e-06
2025-04-07 13:57:33.252031088,2.3167647213995224e-06
2025-04-07 13:57:33.267656088,2.0719321582873818e-06
2025-04-07 13:57:33.283281088,1.0055903203465277e-06
2025-04-07 13:57:33.298906088,-4.3466457100294065e-07
2025-04-07 13:57:33.314531088,-1.7256081719096983e-06
2025-04-07 13:57:33.330156088,-2.3982738639460877e-06
2025-04-07 13:57:33.345781088,-2.154300091206096e-06
2025-04-07 13:57:33.361406088,-1.088665158022195e-06
2025-04-07 13:57:33.377031088,3.5103153095406014e-07
2025-04-07 13:57:33.392656088,1.6415629033872392e-06
2025-04-07 13:57:33.408281088,2.3139591576182283e-06
2025-04-07 13:57:33.423906088,2.0698555545095587e-06
2025-04-07 13:57:33.439531088,1.0042276699095964e-06
2025-04-07 13:57:33.455156088,-4.353291842562612e-07
2025-04-07 13:57:33.470781088,-1.7255913462577155e-06
2025-04-07 13:57:33.486406088,-2.3975926524144597e-06
2025-04-07 13:57:33.502031087,-2.152972456315183e-06
2025-04-07 13:57:33.517656087,-1.0867097444133833e-06
2025-04-07 13:57:33.533281087,3.5359562389203347e-07
2025-04-07 13:57:33.548906088,1.6447162352051237e-06
2025-04-07 13:57:33.564531088,2.3176819468062604e-06
2025-04-07 13:57:33.580156088,2.0741272237501107e-06
2025-04-07 13:57:33.595781088,1.0090270734508522e-06
2025-04-07 13:57:33.611406088,-4.3002273741876706e-07
2025-04-07 13:57:33.627031088,-1.7197990018757991e-06
2025-04-07 13:57:33.642656088,-2.3913360109872883e-06
2025-04-07 13:57:33.658281088,-2.1462728909682482e-06
2025-04-07 13:57:33.673906088,-1.0795888556458522e-06
2025-04-07 13:57:33.689531088,3.6111600820731837e-07
2025-04-07 13:57:33.705156088,1.652614173508482e-06
2025-04-07 13:57:33.720781088,2.325935156477499e-06
2025-04-07 13:57:33.736406088,2.0827139906032244e-06
2025-04-07 13:57:33.752031088,1.017925796986674e-06
2025-04-07 13:57:33.767656088,-4.2083411244675517e-07
2025-04-07 13:57:33.783281088,-1.7103423033404397e-06
2025-04-07 13:57:33.798906088,-2.381632612014073e-06
2025-04-07 13:57:33.814531088,-2.136343937308993e-06
2025-04-07 13:57:33.830156088,-1.0694559477997245e-06
2025-04-07 13:57:33.845781088,3.714319518621778e-07
2025-04-07 13:57:33.861406088,1.6630922345939325e-06
2025-04-07 13:57:33.877031088,2.3365548713627504e-06
2025-04-07 13:57:33.892656088,2.0934548956574872e-06
2025-04-07 13:57:33.908281088,1.0287676559528336e-06
2025-04-07 13:57:33.923906088,-4.0991085370478686e-07
2025-04-07 13:57:33.939531088,-1.6993569715850754e-06
2025-04-07 13:57:33.955156088,-2.37060430663405e-06
2025-04-07 13:57:33.970781088,-2.125291530319373e-06
2025-04-07 13:57:33.986406088,-1.058397629094543e-06
2025-04-07 13:57:34.002031088,3.824786745099118e-07
2025-04-07 13:57:34.017656088,1.6741103081585607e-06
2025-04-07 13:57:34.033281088,2.34752747019229e-06
2025-04-07 13:57:34.048906088,2.1043663309683325e-06
2025-04-07 13:57:34.064531088,1.0396020115877036e-06
2025-04-07 13:57:34.080156088,-3.991688117821468e-07
2025-04-07 13:57:34.095781088,-1.6887217952898936e-06
2025-04-07 13:57:34.111406088,-2.360090093134204e-06
2025-04-07 13:57:34.127031087,-2.114911694661714e-06
2025-04-07 13:57:34.142656088,-1.0481649042048957e-06
2025-04-07 13:57:34.158281088,3.9255178307939786e-07
2025-04-07 13:57:34.173906088,1.6840119769767625e-06
2025-04-07 13:57:34.189531088,2.357246557949111e-06
2025-04-07 13:57:34.205156088,2.1138921511010267e-06
2025-04-07 13:57:34.220781088,1.0489252417755779e-06
2025-04-07 13:57:34.236406088,-3.900574938597856e-07
2025-04-07 13:57:34.252031088,-1.6798314845800633e-06
2025-04-07 13:57:34.267656088,-2.3514292024628958e-06
2025-04-07 13:57:34.283281088,-2.106487727360218e-06
2025-04-07 13:57:34.298906088,-1.0399851362308254e-06
2025-04-07 13:57:34.314531088,4.0048075788945425e-07
2025-04-07 13:57:34.330156088,1.691684019533568e-06
2025-04-07 13:57:34.345781088,2.3646559839107795e-06
2025-04-07 13:57:34.361406088,2.1210335034993477e-06
2025-04-07 13:57:34.377031088,1.0557935183896916e-06
2025-04-07 13:57:34.392656088,-3.834663857560372e-07
2025-04-07 13:57:34.408281088,-1.6735209555918118e-06
2025-04-07 13:57:34.423906088,-2.3454019810742466e-06
2025-04-07 13:57:34.439531088,-2.1007463146816008e-06
2025-04-07 13:57:34.455156088,-1.0345315786253195e-06
2025-04-07 13:57:34.470781088,4.056450961797964e-07
2025-04-07 13:57:34.486406088,1.6965582290140446e-06
2025-04-07 13:57:34.502031087,2.3692400645813905e-06
2025-04-07 13:57:34.517656087,2.125328364854795e-06
2025-04-07 13:57:34.533281087,1.0598000699246768e-06
2025-04-07 13:57:34.548906088,-3.7974723454681225e-07
2025-04-07 13:57:34.564531088,-1.670087613092619e-06
2025-04-07 13:57:34.580156088,-2.3422526282956824e-06
2025-04-07 13:57:34.595781088,-2.097879360007937e-06
2025-04-07 13:57:34.611406088,-1.0319440661987755e-06
2025-04-07 13:57:34.627031088,4.079561222170014e-07
2025-04-07 13:57:34.642656088,1.6985961792670423e-06
2025-04-07 13:57:34.658281088,2.371008577028988e-06
2025-04-07 13:57:34.673906088,2.1268306227284484e-06
2025-04-07 13:57:34.689531088,1.061040620697895e-06
2025-04-07 13:57:34.705156088,-3.7876384340052027e-07
2025-04-07 13:57:34.720781088,-1.669356606726069e-06
2025-04-07 13:57:34.736406088,-2.341768777114339e-06
2025-04-07 13:57:34.752031088,-2.097636752296239e-06
2025-04-07 13:57:34.767656088,-1.0319372449885122e-06
2025-04-07 13:57:34.783281088,4.0773284126771614e-07
2025-04-07 13:57:34.798906088,1.6981489352474455e-06
2025-04-07 13:57:34.814531088,2.3703435090283165e-06
2025-04-07 13:57:34.830156088,2.1259540972096147e-06
2025-04-07 13:57:34.845781088,1.0599590041238116e-06
2025-04-07 13:57:34.861406088,-3.800435024459148e-07
2025-04-07 13:57:34.877031088,-1.6708272596588358e-06
2025-04-07 13:57:34.892656088,-2.3434233753505396e-06
2025-04-07 13:57:34.908281088,-2.099468019878259e-06
2025-04-07 13:57:34.923906088,-1.0339379059587372e-06
2025-04-07 13:57:34.939531088,4.05570517614251e-07
2025-04-07 13:57:34.955156088,1.6958324522420298e-06
2025-04-07 13:57:34.970781088,2.36788037000224e-06
2025-04-07 13:57:34.986406088,2.123351805494167e-06
2025-04-07 13:57:35.002031088,1.0572252904239576e-06
2025-04-07 13:57:35.017656088,-3.829009074252099e-07
2025-04-07 13:57:35.033281088,-1.6738007388994447e-06
2025-04-07 13:57:35.048906088,-2.3465054255211726e-06
2025-04-07 13:57:35.064531088,-2.1026514787081396e-06
2025-04-07 13:57:35.080156088,-1.0372145879955497e-06
2025-04-07 13:57:35.095781088,4.0220788832812104e-07
2025-04-07 13:57:35.111406088,1.692391379037872e-06
2025-04-07 13:57:35.127031087,2.3643683562113438e-06
2025-04-07 13:57:35.142656088,2.119776809195173e-06
2025-04-07 13:57:35.158281088,1.0535941328271292e-06
2025-04-07 13:57:35.173906088,-3.8658117773593403e-07
2025-04-07 13:57:35.189531088,-1.6775230733401258e-06
2025-04-07 13:57:35.205156088,-2.350262775507872e-06
2025-04-07 13:57:35.220781088,-2.106436568283243e-06
2025-04-07 13:57:35.236406088,-1.0410212780698203e-06
2025-04-07 13:57:35.252031088,3.983861915912712e-07
2025-04-07 13:57:35.267656088,1.6885610421013553e-06
2025-04-07 13:57:35.283281088,2.3605355181643972e-06
2025-04-07 13:57:35.298906088,2.1159471543796826e-06
2025-04-07 13:57:35.314531088,1.049774255079683e-06
2025-04-07 13:57:35.330156088,-3.903851393260993e-07
2025-04-07 13:57:35.345781088,-1.6813055481179617e-06
2025-04-07 13:57:35.361406088,-2.354018306505168e-06
2025-04-07 13:57:35.377031088,-2.110159812218626e-06
2025-04-07 13:57:35.392656088,-1.0447067779750796e-06
2025-04-07 13:57:35.408281088,3.947434379369952e-07
2025-04-07 13:57:35.423906088,1.6849655821715714e-06
2025-04-07 13:57:35.439531088,2.3569918994326144e-06
2025-04-07 13:57:35.455156088,2.1124596969457343e-06
2025-04-07 13:57:35.470781088,1.0463465969223762e-06
2025-04-07 13:57:35.486406088,-3.937495876016328e-07
2025-04-07 13:57:35.502031087,-1.6846030348460772e-06
2025-04-07 13:57:35.517656087,-2.357245193707058e-06
2025-04-07 13:57:35.533281087,-2.1133128029759973e-06
2025-04-07 13:57:35.548906088,-1.047783371177502e-06
2025-04-07 13:57:35.564531088,3.9174597077362705e-07
2025-04-07 13:57:35.580156088,1.6820500832182006e-06
2025-04-07 13:57:35.595781088,2.354161097173346e-06
2025-04-07 13:57:35.611406088,2.1097164335515117e-06
2025-04-07 13:57:35.627031088,1.0436924640089273e-06
2025-04-07 13:57:35.642656088,-3.963125436712289e-07
2025-04-07 13:57:35.658281088,-1.6870731087692548e-06
2025-04-07 13:57:35.673906088,-2.3596210212417645e-06
2025-04-07 13:57:35.689531088,-2.1155931335670175e-06
2025-04-07 13:57:35.705156088,-1.049966158461757e-06
2025-04-07 13:57:35.720781088,3.896618636645144e-07
2025-04-07 13:57:35.736406088,1.6800654520920943e-06
2025-04-07 13:57:35.752031088,2.3522766241512727e-06
2025-04-07 13:57:35.767656088,2.1079322323203087e-06
2025-04-07 13:57:35.783281088,1.0420094440632965e-06
2025-04-07 13:57:35.798906088,-3.978943823312875e-07
2025-04-07 13:57:35.814531088,-1.688553766143741e-06
2025-04-07 13:57:35.830156088,-2.361000724704354e-06
2025-04-07 13:57:35.845781088,-2.1168721104913857e-06
2025-04-07 13:57:35.861406088,-1.0511453183426056e-06
2025-04-07 13:57:35.877031088,3.885816113324836e-07
2025-04-07 13:57:35.892656088,1.6790831978141796e-06
2025-04-07 13:57:35.908281088,2.3513912310590968e-06
2025-04-07 13:57:35.923906088,2.1071421087981435e-06
2025-04-07 13:57:35.939531088,1.0413134532427648e-06
2025-04-07 13:57:35.955156088,-3.9849737731856294e-07
2025-04-07 13:57:35.970781088,-1.6890652432266506e-06
2025-04-07 13:57:35.986406088,-2.3614220481249504e-06
2025-04-07 13:57:36.002031088,-2.1172049855522346e-06
2025-04-07 13:57:36.017656088,-1.0513915640331106e-06
2025-04-07 13:57:36.033281088,3.8842040339659434e-07
2025-04-07 13:57:36.048906088,1.6790052086435026e-06
2025-04-07 13:57:36.064531088,2.351394414290553e-06
2025-04-07 13:57:36.080156088,2.1072246454423293e-06
2025-04-07 13:57:36.095781088,1.0414728421892505e-06
2025-04-07 13:57:36.111406088,-3.9826340980653185e-07
2025-04-07 13:57:36.127031087,-1.6887588571989909e-06
2025-04-07 13:57:36.142656088,-2.3610459720657673e-06
2025-04-07 13:57:36.158281088,-2.1167618342587957e-06
2025-04-07 13:57:36.173906088,-1.050883383868495e-06
2025-04-07 13:57:36.189531088,3.8899111132195685e-07
2025-04-07 13:57:36.205156088,1.679635943219182e-06
2025-04-07 13:57:36.220781088,2.3520826744061196e-06
2025-04-07 13:57:36.236406088,2.107968384734704e-06
2025-04-07 13:57:36.252031088,1.0422695595480036e-06
2025-04-07 13:57:36.267656088,-3.9741621549183037e-07
2025-04-07 13:57:36.283281088,-1.6878638007256086e-06
2025-04-07 13:57:36.298906088,-2.360105554544134e-06
2025-04-07 13:57:36.314531088,-2.1157788978598546e-06
2025-04-07 13:57:36.330156088,-1.0498611118237022e-06
2025-04-07 13:57:36.345781088,3.900502179021714e-07
2025-04-07 13:57:36.361406088,1.6807293832243886e-06
2025-04-07 13:57:36.377031088,2.353207946725888e-06
2025-04-07 13:57:36.392656088,2.1091227608849294e-06
2025-04-07 13:57:36.408281088,1.0434505384182557e-06
2025-04-07 13:57:36.423906088,-3.9621113501198124e-07
2025-04-07 13:57:36.439531088,-1.68663723343343e-06
2025-04-07 13:57:36.455156088,-2.3588597741763806e-06
2025-04-07 13:57:36.470781088,-2.1145153823454166e-06
2025-04-07 13:57:36.486406088,-1.048582134899334e-06
2025-04-07 13:57:36.502031087,3.913423824997153e-07
2025-04-07 13:57:36.517656087,1.6820322343846783e-06
2025-04-07 13:57:36.533281087,2.3545192107121693e-06
2025-04-07 13:57:36.548906088,2.1104401639604475e-06
2025-04-07 13:57:36.564531088,1.0447722615936073e-06
2025-04-07 13:57:36.580156088,-3.948875928472262e-07
2025-04-07 13:57:36.595781088,-1.6853139186423505e-06
2025-04-07 13:57:36.611406088,-2.3575387331220554e-06
2025-04-07 13:57:36.627031088,-2.113198661390925e-06
2025-04-07 13:57:36.642656088,-1.0472717804077547e-06
2025-04-07 13:57:36.658281088,3.9264432416530326e-07
2025-04-07 13:57:36.673906088,1.6833239442348713e-06
2025-04-07 13:57:36.689531088,2.355798869757564e-06
2025-04-07 13:57:36.705156088,2.11170595321164e-06
2025-04-07 13:57:36.720781088,1.0460221346875187e-06
2025-04-07 13:57:36.736406088,-3.9365500015264843e-07
2025-04-07 13:57:36.752031088,-1.6841001979628345e-06
2025-04-07 13:57:36.767656088,-2.3563454760733293e-06
2025-04-07 13:57:36.783281088,-2.1120279143360676e-06
2025-04-07 13:57:36.798906088,-1.046124907588819e-06
2025-04-07 13:57:36.814531088,3.9376618587994017e-07
2025-04-07 13:57:36.830156088,1.6844196579768322e-06
2025-04-07 13:57:36.845781088,2.356867526032147e-06
2025-04-07 13:57:36.861406088,2.1127466425241437e-06
2025-04-07 13:57:36.877031088,1.047033947543241e-06
2025-04-07 13:57:36.892656088,-3.926729732484091e-07
2025-04-07 13:57:36.908281088,-1.6831486391311046e-06
2025-04-07 13:57:36.923906088,-2.355425067435135e-06
2025-04-07 13:57:36.939531088,-2.11113911063876e-06
2025-04-07 13:57:36.955156088,-1.045268163579749e-06
2025-04-07 13:57:36.970781088,3.94589960706071e-07
2025-04-07 13:57:36.986406088,1.685210008872673e-06
2025-04-07 13:57:37.002031088,2.357623770876671e-06
2025-04-07 13:57:37.017656088,2.113468099196325e-06
2025-04-07 13:57:37.033281088,1.0477203886694042e-06
2025-04-07 13:57:37.048906088,-3.920217750419397e-07
2025-04-07 13:57:37.064531088,-1.6825329112180043e-06
2025-04-07 13:57:37.080156088,-2.354844809815404e-06
2025-04-07 13:57:37.095781088,-2.110593868565047e-06
2025-04-07 13:57:37.111406088,-1.0447581644257298e-06
2025-04-07 13:57:37.127031087,3.950649443140719e-07
2025-04-07 13:57:37.142656088,1.685650204308331e-06
2025-04-07 13:57:37.158281088,2.358029405513662e-06
2025-04-07 13:57:37.173906088,2.113839400408324e-06
2025-04-07 13:57:37.189531088,1.0480575838300865e-06
2025-04-07 13:57:37.205156088,-3.917184585588984e-07
2025-04-07 13:57:37.220781088,-1.6822630186652532e-06
2025-04-07 13:57:37.236406088,-2.3546081138192676e-06
2025-04-07 13:57:37.252031088,-2.1103903691255255e-06
2025-04-07 13:57:37.267656088,-1.044586952048121e-06
2025-04-07 13:57:37.283281088,3.9520455175079405e-07
2025-04-07 13:57:37.298906088,1.6857586615515174e-06
2025-04-07 13:57:37.314531088,2.358107394684339e-06
2025-04-07 13:57:37.330156088,2.113888285748544e-06
2025-04-07 13:57:37.345781088,1.0480780474608764e-06
2025-04-07 13:57:37.361406088,-3.9172550714283716e-07
2025-04-07 13:57:37.377031088,-1.6822968973428942e-06
2025-04-07 13:57:37.392656088,-2.3546681404695846e-06
2025-04-07 13:57:37.408281088,-2.1104760890011676e-06
2025-04-07 13:57:37.423906088,-1.0446979104017373e-06
2025-04-07 13:57:37.439531088,3.9506926441390533e-07
2025-04-07 13:57:37.455156088,1.685599954726058e-06
2025-04-07 13:57:37.470781088,2.3579261778650107e-06
2025-04-07 13:57:37.486406088,2.1136847863090225e-06
2025-04-07 13:57:37.502031087,1.0478534022695385e-06
2025-04-07 13:57:37.517656087,-3.919703885912895e-07
2025-04-07 13:57:37.533281087,-1.6825611055537593e-06
2025-04-07 13:57:37.548906088,-2.3549503112008097e-06
2025-04-07 13:57:37.564531088,-2.1107750853843754e-06
2025-04-07 13:57:37.580156088,-1.0450128229422262e-06
2025-04-07 13:57:37.595781088,3.9473911783716176e-07
2025-04-07 13:57:37.611406088,1.6852554836077616e-06
2025-04-07 13:57:37.627031088,2.3575680643261876e-06
2025-04-07 13:57:37.642656088,2.11331416721805e-06
2025-04-07 13:57:37.658281088,1.0474711871211184e-06
2025-04-07 13:57:37.673906088,-3.923632903024554e-07
2025-04-07 13:57:37.689531088,-1.6829637843329692e-06
2025-04-07 13:57:37.705156088,-2.3553620849270374e-06
2025-04-07 13:57:37.720781088,-2.111195044562919e-06
2025-04-07 13:57:37.736406088,-1.045440058078384e-06
2025-04-07 13:57:37.752031088,3.9430574361176696e-07
2025-04-07 13:57:37.767656088,1.6848166524141561e-06
2025-04-07 13:57:37.783281088,2.3571249130327487e-06
2025-04-07 13:57:37.798906088,2.112867832693155e-06
2025-04-07 13:57:37.814531088,1.047022124112118e-06
2025-04-07 13:57:37.830156088,-3.928143996745348e-07
2025-04-07 13:57:37.845781088,-1.6834162579471013e-06
2025-04-07 13:57:37.861406088,-2.3558150132885203e-06
2025-04-07 13:57:37.877031088,-2.1116477455507265e-06
2025-04-07 13:57:37.892656088,-1.0458911674504634e-06
2025-04-07 13:57:37.908281088,3.9385668060276657e-07
2025-04-07 13:57:37.923906088,1.6843704315760988e-06
2025-04-07 13:57:37.939531088,2.3566822164866608e-06
2025-04-07 13:57:37.955156088,2.112429228873225e-06
2025-04-07 13:57:37.970781088,1.0465882951393723e-06
2025-04-07 13:57:37.986406088,-3.9324277167906985e-07
2025-04-07 13:57:38.002031088,-1.6838384908623993e-06
2025-04-07 13:57:38.017656088,-2.356230879740906e-06
2025-04-07 13:57:38.033281088,-2.1120572455402e-06
2025-04-07 13:57:38.048906088,-1.0462940736033488e-06
2025-04-07 13:57:38.064531088,3.9346059566014446e-07
2025-04-07 13:57:38.080156088,1.6839817362779286e-06
2025-04-07 13:57:38.095781088,2.356301138206618e-06
2025-04-07 13:57:38.111406088,2.112055199177121e-06
2025-04-07 13:57:38.127031087,1.0462219961482333e-06
2025-04-07 13:57:38.142656088,-3.936011125915684e-07
2025-04-07 13:57:38.158281088,-1.684188646322582e-06
2025-04-07 13:57:38.173906088,-2.3565723950014217e-06
2025-04-07 13:57:38.189531088,-2.112389211106347e-06
2025-04-07 13:57:38.205156088,-1.0466167168488028e-06
2025-04-07 13:57:38.220781088,3.9314795685641e-07
2025-04-07 13:57:38.236406088,1.6836792156027514e-06
2025-04-07 13:57:38.252031088,2.356008735659998e-06
2025-04-07 13:57:38.267656088,2.1117734831932466e-06
2025-04-07 13:57:38.283281088,1.0459511941007804e-06
2025-04-07 13:57:38.298906088,-3.9386077332892455e-07
2025-04-07 13:57:38.314531088,-1.6844370520630036e-06
2025-04-07 13:57:38.330156088,-2.3568097731185844e-06
2025-04-07 13:57:38.345781088,-2.112615447913413e-06
2025-04-07 13:57:38.361406088,-1.0468315849720966e-06
2025-04-07 13:57:38.377031088,3.929444574168883e-07
2025-04-07 13:57:38.392656088,1.6834870848470018e-06
2025-04-07 13:57:38.408281088,2.355828200961696e-06
2025-04-07 13:57:38.423906088,2.1116049992997432e-06
2025-04-07 13:57:38.439531088,1.0457943062647246e-06
2025-04-07 13:57:38.455156088,-3.940060651075328e-07
2025-04-07 13:57:38.470781088,-1.684570861471002e-06
2025-04-07 13:57:38.486406088,-2.356932100155973e-06
2025-04-07 13:57:38.502031087,-2.1127266336407047e-06
2025-04-07 13:57:38.517656087,-1.0469320841366425e-06
2025-04-07 13:57:38.533281087,3.928544174414128e-07
2025-04-07 13:57:38.548906088,1.683407390373759e-06
2025-04-07 13:57:38.564531088,2.3557586246170104e-06
2025-04-07 13:57:38.580156088,2.1115452000231016e-06
2025-04-07 13:57:38.595781088,1.045744284056127e-06
2025-04-07 13:57:38.611406088,-3.9404653762176167e-07
2025-04-07 13:57:38.627031088,-1.6846018979777e-06
2025-04-07 13:57:38.642656088,-2.3569534732814645e-06
2025-04-07 13:57:38.658281088,-2.1127382296981523e-06
2025-04-07 13:57:38.673906088,-1.0469336757523706e-06
2025-04-07 13:57:38.689531088,3.9286260289372876e-07
2025-04-07 13:57:38.705156088,1.6834251255204435e-06
2025-04-07 13:57:38.720781088,2.355785682084388e-06
2025-04-07 13:57:38.736406088,2.1115811250638217e-06
2025-04-07 13:57:38.752031088,1.0457890766701894e-06
2025-04-07 13:57:38.767656088,-3.9399333218170796e-07
2025-04-07 13:57:38.783281088,-1.684540620772168e-06
2025-04-07 13:57:38.798906088,-2.3568845790578052e-06
2025-04-07 13:57:38.814531088,-2.112662059516879e-06
2025-04-07 13:57:38.830156088,-1.046850229613483e-06
2025-04-07 13:57:38.845781088,3.9295309761655517e-07
2025-04-07 13:57:38.861406088,1.6835223277666955e-06
2025-04-07 13:57:38.877031088,2.3558895918540657e-06
2025-04-07 13:57:38.892656088,2.1116918560437625e-06
2025-04-07 13:57:38.908281088,1.0459061741130427e-06
2025-04-07 13:57:38.923906088,-3.938700956496177e-07
2025-04-07 13:57:38.939531088,-1.6844114725245163e-06
2025-04-07 13:57:38.955156088,-2.3567497464682674e-06
2025-04-07 13:57:38.970781088,-2.112522679453832e-06
2025-04-07 13:57:38.986406088,-1.0467069841979537e-06
2025-04-07 13:57:39.002031088,3.9309975363721605e-07
2025-04-07 13:57:39.017656088,1.6836720533319749e-06
2025-04-07 13:57:39.033281088,2.3560419322166126e-06
2025-04-07 13:57:39.048906088,2.1118462427693885e-06
2025-04-07 13:57:39.064531088,1.0460626072017476e-06
2025-04-07 13:57:39.080156088,-3.9371184357150923e-07
2025-04-07 13:57:39.095781088,-1.6842517425175174e-06
2025-04-07 13:57:39.111406088,-2.356588993279729e-06
2025-04-07 13:57:39.127031087,-2.112360562023241e-06
2025-04-07 13:57:39.142656088,-1.0465437298989855e-06
2025-04-07 13:57:39.158281088,3.932636900572106e-07
2025-04-07 13:57:39.173906088,1.6838364444993204e-06
2025-04-07 13:57:39.189531088,2.356206323383958e-06
2025-04-07 13:57:39.205156088,2.112010179189383e-06
2025-04-07 13:57:39.220781088,1.0462251793796895e-06
2025-04-07 13:57:39.236406088,-3.935508630092954e-07
2025-04-07 13:57:39.252031088,-1.6840925809447072e-06
2025-04-07 13:57:39.267656088,-2.3564318780699978e-06
2025-04-07 13:57:39.283281088,-2.1122059479239397e-06
2025-04-07 13:57:39.298906088,-1.046391616910114e-06
2025-04-07 13:57:39.314531088,3.9341330193565227e-07
2025-04-07 13:57:39.330156088,1.6839833278936567e-06
2025-04-07 13:57:39.345781088,2.3563502509205136e-06
2025-04-07 13:57:39.361406088,2.1121509234944824e-06
2025-04-07 13:57:39.377031088,1.0463631952006835e-06
2025-04-07 13:57:39.392656088,-3.9341580304608215e-07
2025-04-07 13:57:39.408281088,-1.6839605905261124e-06
2025-04-07 13:57:39.423906088,-2.356303184569697e-06
2025-04-07 13:57:39.439531088,-2.1120806650287705e-06
2025-04-07 13:57:39.455156088,-1.0462699719937518e-06
2025-04-07 13:57:39.470781088,3.935313088732073e-07
2025-04-07 13:57:39.486406088,1.6840976968524046e-06
2025-04-07 13:57:39.502031087,2.3564609819004545e-06
2025-04-07 13:57:39.517656087,2.112258471242967e-06
2025-04-07 13:57:39.533281087,1.0464668775966857e-06
2025-04-07 13:57:39.548906088,-3.9331598600256257e-07
2025-04-07 13:57:39.564531088,-1.6838646388350753e-06
2025-04-07 13:57:39.580156088,-2.3562110982311424e-06
2025-04-07 13:57:39.595781088,-2.111992671416374e-06
2025-04-07 13:57:39.611406088,-1.0461862984811887e-06
2025-04-07 13:57:39.627031088,3.93610662285937e-07
2025-04-07 13:57:39.642656088,1.6841727301653009e-06
2025-04-07 13:57:39.658281088,2.3565316951135173e-06
2025-04-07 13:57:39.673906088,2.112324636982521e-06
2025-04-07 13:57:39.689531088,1.0465287232364062e-06
2025-04-07 13:57:39.705156088,-3.93258233089e-07
2025-04-07 13:57:39.720781088,-1.6838109786476707e-06
2025-04-07 13:57:39.736406088,-2.3561615307698958e-06
2025-04-07 13:57:39.752031088,-2.111946514560259e-06
2025-04-07 13:57:39.767656088,-1.04614332485653e-06
2025-04-07 13:57:39.783281088,3.9365045267913956e-07
2025-04-07 13:57:39.798906088,1.6842093373270473e-06
2025-04-07 13:57:39.814531088,2.3565651190438075e-06
2025-04-07 13:57:39.830156088,2.1123546503076795e-06
2025-04-07 13:57:39.845781088,1.046555325956433e-06
2025-04-07 13:57:39.861406088,-3.932352683477802e-07
2025-04-07 13:57:39.877031088,-1.683791651885258e-06
2025-04-07 13:57:39.892656088,-2.3561456146126147e-06
2025-04-07 13:57:39.908281088,-2.1119344637554605e-06
2025-04-07 13:57:39.923906088,-1.0461349120305385e-06
2025-04-07 13:57:39.939531088,3.9365522752632387e-07
2025-04-07 13:57:39.955156088,1.6842104741954245e-06
2025-04-07 13:57:39.970781088,2.3565630726807285e-06
2025-04-07 13:57:39.986406088,2.1123498754604952e-06
2025-04-07 13:57:40.002031088,1.0465478226251435e-06
2025-04-07 13:57:40.017656088,-3.932452727894997e-07
2025-04-07 13:57:40.033281088,-1.6838040437505697e-06
2025-04-07 13:57:40.048906088,-2.3561603939015185e-06
2025-04-07 13:57:40.064531088,-2.1119519715284696e-06
2025-04-07 13:57:40.080156088,-1.0461549209139775e-06
2025-04-07 13:57:40.095781088,3.93632717532455e-07
2025-04-07 13:57:40.111406088,1.6841856904648012e-06
2025-04-07 13:57:40.127031087,2.3565360152133508e-06
2025-04-07 13:57:40.142656088,2.112320544256363e-06
2025-04-07 13:57:40.158281088,1.0465164450579323e-06
2025-04-07 13:57:40.173906088,-3.932789240934653e-07
2025-04-07 13:57:40.189531088,-1.683839855104452e-06
2025-04-07 13:57:40.205156088,-2.356198137931642e-06
2025-04-07 13:57:40.220781088,-2.1119908524269704e-06
2025-04-07 13:57:40.236406088,-1.0461953934282064e-06
2025-04-07 13:57:40.252031088,3.93590653402498e-07
2025-04-07 13:57:40.267656088,1.684142034719116e-06
2025-04-07 13:57:40.283281088,2.356490540478262e-06
2025-04-07 13:57:40.298906088,2.1122730231581954e-06
2025-04-07 13:57:40.314531088,1.0464671049703611e-06
2025-04-07 13:57:40.330156088,-3.933298557967646e-07
2025-04-07 13:57:40.345781088,-1.6838922647366417e-06
2025-04-07 13:57:40.361406088,-2.3562517981190467e-06
2025-04-07 13:57:40.377031088,-2.1120454221090768e-06
2025-04-07 13:57:40.392656088,-1.0462506452313391e-06
2025-04-07 13:57:40.408281088,3.935349468520144e-07
2025-04-07 13:57:40.423906088,1.6840859871081193e-06
2025-04-07 13:57:40.439531088,2.356434151806752e-06
2025-04-07 13:57:40.455156088,2.11221640711301e-06
2025-04-07 13:57:40.470781088,1.0464104889251757e-06
2025-04-07 13:57:40.486406088,-3.933862444682745e-07
2025-04-07 13:57:40.502031087,-1.6839484260344761e-06
2025-04-07 13:57:40.517656087,-2.3563081867905566e-06
2025-04-07 13:57:40.533281087,-2.112102492901613e-06
2025-04-07 13:57:40.548906088,-1.0463077160238754e-06
2025-04-07 13:57:40.564531088,3.934781034331536e-07
2025-04-07 13:57:40.580156088,1.6840294847497717e-06
2025-04-07 13:57:40.595781088,2.356378217882593e-06
2025-04-07 13:57:40.611406088,2.1121616100572282e-06
2025-04-07 13:57:40.627031088,1.0463568287377711e-06
2025-04-07 13:57:40.642656088,-3.934387677873019e-07
2025-04-07 13:57:40.658281088,-1.6839996987982886e-06
2025-04-07 13:57:40.673906088,-2.3563579816254787e-06
2025-04-07 13:57:40.689531088,-2.1121504687471315e-06
2025-04-07 13:57:40.705156088,-1.0463545550010167e-06
2025-04-07 13:57:40.720781088,3.934324013243895e-07
2025-04-07 13:57:40.736406088,1.6839849195093848e-06
2025-04-07 13:57:40.752031088,2.3563347895105835e-06
2025-04-07 13:57:40.767656088,2.1121190911799204e-06
2025-04-07 13:57:40.783281088,1.0463154467288405e-06
2025-04-07 13:57:40.798906088,-3.934787855541799e-07
2025-04-07 13:57:40.814531088,-1.684038352323114e-06
2025-04-07 13:57:40.830156088,-2.356395043534576e-06
2025-04-07 13:57:40.845781088,-2.1121857116668252e-06
2025-04-07 13:57:40.861406088,-1.0463879789313069e-06
2025-04-07 13:57:40.877031088,3.9340102375717834e-07
2025-04-07 13:57:40.892656088,1.6839555883052526e-06
2025-04-07 13:57:40.908281088,2.3563075046695303e-06
2025-04-07 13:57:40.923906088,2.1120936253282707e-06
2025-04-07 13:57:40.939531088,1.046291572492919e-06
2025-04-07 13:57:40.955156088,-3.935012955480488e-07
2025-04-07 13:57:40.970781088,-1.6840594980749302e-06
2025-04-07 13:57:40.986406088,-2.356414597670664e-06
2025-04-07 13:57:41.002031088,-2.1122036741871852e-06
2025-04-07 13:57:41.017656088,-1.0464045772096142e-06
2025-04-07 13:57:41.033281088,3.9338578972092364e-07
2025-04-07 13:57:41.048906088,1.6839417185110506e-06
2025-04-07 13:57:41.064531088,2.3562952264910564e-06
2025-04-07 13:57:41.080156088,2.1120833935128758e-06
2025-04-07 13:57:41.095781088,1.0462831596669275e-06
2025-04-07 13:57:41.111406088,-3.9350788938463666e-07
2025-04-07 13:57:41.127031087,-1.6840642729221145e-06
2025-04-07 13:57:41.142656088,-2.3564177809021203e-06
2025-04-07 13:57:41.158281088,-2.112206175297615e-06
2025-04-07 13:57:41.173906088,-1.046405486704316e-06
2025-04-07 13:57:41.189531088,3.933862444682745e-07
2025-04-07 13:57:41.205156088,1.6839435375004541e-06
2025-04-07 13:57:41.220781088,2.3562984097225126e-06
2025-04-07 13:57:41.236406088,2.112087713612709e-06
2025-04-07 13:57:41.252031088,1.0462886166351382e-06
2025-04-07 13:57:41.267656088,-3.935012955480488e-07
2025-04-07 13:57:41.283281088,-1.6840565422171494e-06
2025-04-07 13:57:41.298906088,-2.356408913328778e-06
2025-04-07 13:57:41.314531088,-2.1121954887348693e-06
2025-04-07 13:57:41.330156088,-1.046393663273193e-06
2025-04-07 13:57:41.345781088,3.933987500204239e-07
2025-04-07 13:57:41.361406088,1.683956611486792e-06
2025-04-07 13:57:41.377031088,2.3563118247693637e-06
2025-04-07 13:57:41.392656088,2.1121011286595603e-06
2025-04-07 13:57:41.408281088,1.0463020316819893e-06
2025-04-07 13:57:41.423906088,-3.9348788050119765e-07
2025-04-07 13:57:41.439531088,-1.684043240857136e-06
2025-04-07 13:57:41.455156088,-2.3563957256556023e-06
2025-04-07 13:57:41.470781088,-2.1121823010616936e-06
2025-04-07 13:57:41.486406088,-1.0463807029736927e-06
2025-04-07 13:57:41.502031087,3.934119376935996e-07
2025-04-07 13:57:41.517656087,1.6839700265336432e-06
2025-04-07 13:57:41.533281087,2.3563254671898903e-06
2025-04-07 13:57:41.548906088,2.1121149984537624e-06
2025-04-07 13:57:41.564531088,1.0463163562235422e-06
2025-04-07 13:57:41.580156088,-3.9347310121229384e-07
2025-04-07 13:57:41.595781088,-1.684028120507719e-06
2025-04-07 13:57:41.611406088,-2.3563804916193476e-06
2025-04-07 13:57:41.627031088,-2.1121675217727898e-06
2025-04-07 13:57:41.642656088,-1.0463663784321398e-06
2025-04-07 13:57:41.658281088,3.9342580748780165e-07
2025-04-07 13:57:41.673906088,1.6839835552673321e-06
2025-04-07 13:57:41.689531088,2.3563384274893906e-06
2025-04-07 13:57:41.705156088,2.1121279587532626e-06
2025-04-07 13:57:41.720781088,1.0463286344020162e-06
2025-04-07 13:57:41.736406088,-3.934617325285217e-07
2025-04-07 13:57:41.752031088,-1.6840175476318109e-06
2025-04-07 13:57:41.767656088,-2.3563707145513035e-06
2025-04-07 13:57:41.783281088,-2.1121581994520966e-06
2025-04-07 13:57:41.798906088,-1.046357283485122e-06
2025-04-07 13:57:41.814531088,3.9343467506114393e-07
2025-04-07 13:57:41.830156088,1.683992195466999e-06
2025-04-07 13:57:41.845781088,2.356346840315382e-06
2025-04-07 13:57:41.861406088,2.112135916831903e-06
2025-04-07 13:57:41.877031088,1.0463368198543321e-06
2025-04-07 13:57:41.892656088,-3.9345309232885484e-07
2025-04-07 13:57:41.908281088,-1.6840084526847932e-06
2025-04-07 13:57:41.923906088,-2.3563609374832595e-06
2025-04-07 13:57:41.939531088,-2.1121475128893508e-06
2025-04-07 13:57:41.955156088,-1.0463461421750253e-06
2025-04-07 13:57:41.970781088,3.9344627111859154e-07
2025-04-07 13:57:41.986406088,1.684004018898122e-06
2025-04-07 13:57:42.002031088,2.3563588911201805e-06
2025-04-07 13:57:42.017656088,2.112147740263026e-06
2025-04-07 13:57:42.033281088,1.0463479611644289e-06
2025-04-07 13:57:42.048906088,-3.934428605134599e-07
2025-04-07 13:57:42.064531088,-1.6839992440509377e-06
2025-04-07 13:57:42.080156088,-2.356352979404619e-06
2025-04-07 13:57:42.095781088,-2.112140464305412e-06
2025-04-07 13:57:42.111406088,-1.0463395483384375e-06
2025-04-07 13:57:42.127031087,3.934524102078285e-07
2025-04-07 13:57:42.142656088,1.6840098169268458e-06
2025-04-07 13:57:42.158281088,2.3563645754620666e-06
2025-04-07 13:57:42.173906088,2.112153879352263e-06
2025-04-07 13:57:42.189531088,1.0463545550010167e-06
2025-04-07 13:57:42.205156088,-3.9343581192952115e-07
2025-04-07 13:57:42.220781088,-1.6839916270328104e-06
2025-04-07 13:57:42.236406088,-2.3563445665786276e-06
2025-04-07 13:57:42.252031088,-2.1121320514794206e-06
2025-04-07 13:57:42.267656088,-1.0463313628861215e-06
2025-04-07 13:57:42.283281088,3.934601409127936e-07
2025-04-07 13:57:42.298906088,1.6840169791976223e-06
2025-04-07 13:57:42.314531088,2.3563711692986544e-06
2025-04-07 13:57:42.330156088,2.1121595636941493e-06
2025-04-07 13:57:42.345781088,1.0463595572218765e-06
2025-04-07 13:57:42.361406088,-3.934312644560123e-07
2025-04-07 13:57:42.377031088,-1.6839875343066524e-06
2025-04-07 13:57:42.392656088,-2.356341155973496e-06
2025-04-07 13:57:42.408281088,-2.11212909562164e-06
2025-04-07 13:57:42.423906088,-1.0463286344020162e-06
2025-04-07 13:57:42.439531088,3.9346264202322345e-07
2025-04-07 13:57:42.455156088,1.6840193666212144e-06
2025-04-07 13:57:42.470781088,2.3563732156617334e-06
2025-04-07 13:57:42.486406088,2.1121611553098774e-06
2025-04-07 13:57:42.502031087,1.0463606940902537e-06
2025-04-07 13:57:42.517656087,-3.9343058233498596e-07
2025-04-07 13:57:42.533281087,-1.6839874206198147e-06
2025-04-07 13:57:42.548906088,-2.356341610720847e-06
2025-04-07 13:57:42.564531088,-2.1121300051163416e-06
2025-04-07 13:57:42.580156088,-1.0463302260177443e-06
2025-04-07 13:57:42.595781088,3.9346059566014446e-07
2025-04-07 13:57:42.611406088,1.6840169791976223e-06
2025-04-07 13:57:42.627031088,2.356370487177628e-06
2025-04-07 13:57:42.642656088,2.1121577447047457e-06
2025-04-07 13:57:42.658281088,1.0463563739904203e-06
2025-04-07 13:57:42.673906088,-3.934360393031966e-07
2025-04-07 13:57:42.689531088,-1.6839939007695648e-06
2025-04-07 13:57:42.705156088,-2.3563491140521364e-06
2025-04-07 13:57:42.720781088,-2.112138872689684e-06
2025-04-07 13:57:42.736406088,-1.0463395483384375e-06
2025-04-07 13:57:42.752031088,3.934508185921004e-07
2025-04-07 13:57:42.767656088,1.6840067473822273e-06
2025-04-07 13:57:42.783281088,2.3563600279885577e-06
2025-04-07 13:57:42.798906088,2.1121479676367017e-06
2025-04-07 13:57:42.814531088,1.0463472790434025e-06
2025-04-07 13:57:42.830156088,-3.93444452129188e-07
2025-04-07 13:57:42.845781088,-1.6840016314745299e-06
2025-04-07 13:57:42.861406088,-2.356356162636075e-06
2025-04-07 13:57:42.877031088,-2.112145011778921e-06
2025-04-07 13:57:42.892656088,-1.046345460053999e-06
2025-04-07 13:57:42.908281088,3.934451342502143e-07
2025-04-07 13:57:42.923906088,1.684001176727179e-06
2025-04-07 13:57:42.939531088,2.3563543436466716e-06
2025-04-07 13:57:42.955156088,2.1121418285474647e-06
2025-04-07 13:57:42.970781088,1.0463409125804901e-06
2025-04-07 13:57:42.986406088,-3.9345059121842496e-07
2025-04-07 13:57:43.002031088,-1.6840074295032537e-06
2025-04-07 13:57:43.017656088,-2.356361619604286e-06
2025-04-07 13:57:43.033281088,-2.112150241373456e-06
2025-04-07 13:57:43.048906088,-1.0463506896485342e-06
2025-04-07 13:57:43.064531088,3.934396772820037e-07
2025-04-07 13:57:43.080156088,1.6839954923852929e-06
2025-04-07 13:57:43.095781088,2.3563486593047855e-06
2025-04-07 13:57:43.111406088,2.112136371579254e-06
2025-04-07 13:57:43.127031087,1.046335228238604e-06
2025-04-07 13:57:43.142656088,-3.9345673030766193e-07
2025-04-07 13:57:43.158281088,-1.6840140233398415e-06
2025-04-07 13:57:43.173906088,-2.3563686681882245e-06
2025-04-07 13:57:43.189531088,-2.112157289957395e-06
2025-04-07 13:57:43.205156088,-1.046357283485122e-06
2025-04-07 13:57:43.220781088,3.9343376556644216e-07
2025-04-07 13:57:43.236406088,1.6839903764775954e-06
2025-04-07 13:57:43.252031088,2.3563445665786276e-06
2025-04-07 13:57:43.267656088,2.1121334157214733e-06
2025-04-07 13:57:43.283281088,1.046333636622876e-06
2025-04-07 13:57:43.298906088,-3.9345695768133737e-07
2025-04-07 13:57:43.314531088,-1.684013000158302e-06
2025-04-07 13:57:43.330156088,-2.35636639445147e-06
2025-04-07 13:57:43.345781088,-2.112154788846965e-06
2025-04-07 13:57:43.361406088,-1.0463541002536658e-06
2025-04-07 13:57:43.377031088,3.934376309189247e-07
2025-04-07 13:57:43.392656088,1.6839946965774288e-06
2025-04-07 13:57:43.408281088,2.3563491140521364e-06
2025-04-07 13:57:43.423906088,2.1121381905686576e-06
2025-04-07 13:57:43.439531088,1.0463386388437357e-06
2025-04-07 13:57:43.455156088,-3.934519554604776e-07
2025-04-07 13:57:43.470781088,-1.68400811162428e-06
2025-04-07 13:57:43.486406088,-2.356361619604286e-06
2025-04-07 13:57:43.502031087,-2.1121495592524298e-06
2025-04-07 13:57:43.517656087,-1.046349098032806e-06
2025-04-07 13:57:43.533281087,3.9344217839243356e-07
2025-04-07 13:57:43.548906088,1.6839987893035868e-06
2025-04-07 13:57:43.564531088,2.3563527520309435e-06
2025-04-07 13:57:43.580156088,2.1121406916790875e-06
2025-04-07 13:57:43.595781088,1.0463402304594638e-06
2025-04-07 13:57:43.611406088,-3.934512733394513e-07
2025-04-07 13:57:43.627031088,-1.68400811162428e-06
2025-04-07 13:57:43.642656088,-2.356362301725312e-06
2025-04-07 13:57:43.658281088,-2.1121504687471315e-06
2025-04-07 13:57:43.673906088,-1.0463506896485342e-06
2025-04-07 13:57:43.689531088,3.9343990465567913e-07
2025-04-07 13:57:43.705156088,1.6839959471326438e-06
2025-04-07 13:57:43.720781088,2.356349341425812e-06
2025-04-07 13:57:43.736406088,2.112137281073956e-06
2025-04-07 13:57:43.752031088,1.0463368198543321e-06
2025-04-07 13:57:43.767656088,-3.9345468394458294e-07
2025-04-07 13:57:43.783281088,-1.6840115222294116e-06
2025-04-07 13:57:43.798906088,-2.3563657123304438e-06
2025-04-07 13:57:43.814531088,-2.112154788846965e-06
2025-04-07 13:57:43.830156088,-1.0463550097483676e-06
2025-04-07 13:57:43.845781088,3.9343581192952115e-07
2025-04-07 13:57:43.861406088,1.6839920817801612e-06
2025-04-07 13:57:43.877031088,2.3563454760733293e-06
2025-04-07 13:57:43.892656088,2.1121334157214733e-06
2025-04-07 13:57:43.908281088,1.046333181875525e-06
2025-04-07 13:57:43.923906088,-3.9345786717603914e-07
2025-04-07 13:57:43.939531088,-1.6840143644003547e-06
2025-04-07 13:57:43.955156088,-2.356368440814549e-06
2025-04-07 13:57:43.970781088,-2.112156380462693e-06
2025-04-07 13:57:43.986406088,-1.0463559192430694e-06
2025-04-07 13:57:44.002031088,3.934355845558457e-07
2025-04-07 13:57:44.017656088,1.6839925365275121e-06
2025-04-07 13:57:44.033281088,2.3563466129417066e-06
2025-04-07 13:57:44.048906088,2.1121354620845523e-06
2025-04-07 13:57:44.064531088,1.0463359103596304e-06
2025-04-07 13:57:44.080156088,-3.9345422919723205e-07
2025-04-07 13:57:44.095781088,-1.6840098169268458e-06
2025-04-07 13:57:44.111406088,-2.3563625290989876e-06
2025-04-07 13:57:44.127031087,-2.1121493318787543e-06
2025-04-07 13:57:44.142656088,-1.0463479611644289e-06
2025-04-07 13:57:44.158281088,3.93444452129188e-07
2025-04-07 13:57:44.173906088,1.6840023135955562e-06
2025-04-07 13:57:44.189531088,2.3563572995044524e-06
2025-04-07 13:57:44.205156088,2.1121463760209735e-06
2025-04-07 13:57:44.220781088,1.046347051669727e-06
2025-04-07 13:57:44.236406088,-3.934433152608108e-07
2025-04-07 13:57:44.252031088,-1.6839992440509377e-06
2025-04-07 13:57:44.267656088,-2.356352524657268e-06
2025-04-07 13:57:44.283281088,-2.1121395548107103e-06
2025-04-07 13:57:44.298906088,-1.0463381840963848e-06
2025-04-07 13:57:44.314531088,3.9345422919723205e-07
2025-04-07 13:57:44.330156088,1.6840120906636002e-06
2025-04-07 13:57:44.345781088,2.356367303946172e-06
2025-04-07 13:57:44.361406088,2.1121570625837194e-06
2025-04-07 13:57:44.377031088,1.0463581929798238e-06
2025-04-07 13:57:44.392656088,-3.9343171920336317e-07
2025-04-07 13:57:44.408281088,-1.6839870795593015e-06
2025-04-07 13:57:44.423906088,-2.3563397917314433e-06
2025-04-07 13:57:44.439531088,-2.112127049258561e-06
2025-04-07 13:57:44.455156088,-1.0463259059179109e-06
2025-04-07 13:57:44.470781088,3.934660526283551e-07
2025-04-07 13:57:44.486406088,1.6840234593473724e-06
2025-04-07 13:57:44.502031087,2.3563784452562686e-06
2025-04-07 13:57:44.517656087,2.1121677491464652e-06
2025-04-07 13:57:44.533281087,1.0463686521688942e-06
2025-04-07 13:57:44.548906088,-3.934212600142928e-07
2025-04-07 13:57:44.564531088,-1.6839767340570688e-06
2025-04-07 13:57:44.580156088,-2.3563295599160483e-06
2025-04-07 13:57:44.595781088,-2.112116817443166e-06
2025-04-07 13:57:44.611406088,-1.0463159014761914e-06
2025-04-07 13:57:44.627031088,3.934756023227237e-07
2025-04-07 13:57:44.642656088,1.6840325542943901e-06
2025-04-07 13:57:44.658281088,2.35638685808226e-06
2025-04-07 13:57:44.673906088,2.112175252477755e-06
2025-04-07 13:57:44.689531088,1.046375246005482e-06
2025-04-07 13:57:44.705156088,-3.9341580304608215e-07
2025-04-07 13:57:44.720781088,-1.6839724139572354e-06
2025-04-07 13:57:44.736406088,-2.356326376684592e-06
2025-04-07 13:57:44.752031088,-2.1121145437064115e-06
2025-04-07 13:57:44.767656088,-1.0463143098604633e-06
2025-04-07 13:57:44.783281088,3.9347673919110093e-07
2025-04-07 13:57:44.798906088,1.6840331227285787e-06
2025-04-07 13:57:44.814531088,2.35638685808226e-06
2025-04-07 13:57:44.830156088,2.1121745703567285e-06
2025-04-07 13:57:44.845781088,1.046373654389754e-06
2025-04-07 13:57:44.861406088,-3.93418304156512e-07
2025-04-07 13:57:44.877031088,-1.683975824562367e-06
2025-04-07 13:57:44.892656088,-2.3563306967844255e-06
2025-04-07 13:57:44.908281088,-2.1121202280482976e-06
2025-04-07 13:57:44.923906088,-1.0463209036970511e-06
2025-04-07 13:57:44.939531088,3.9346946323348675e-07
2025-04-07 13:57:44.955156088,1.684025278336776e-06
2025-04-07 13:57:44.970781088,2.356378217882593e-06
2025-04-07 13:57:44.986406088,2.1121657027833862e-06
2025-04-07 13:57:45.002031088,1.046365014190087e-06
2025-04-07 13:57:45.017656088,-3.934267169825034e-07
2025-04-07 13:57:45.033281088,-1.683984010014683e-06
2025-04-07 13:57:45.048906088,-2.356338654863066e-06
2025-04-07 13:57:45.064531088,-2.112127731379587e-06
2025-04-07 13:57:45.080156088,-1.0463286344020162e-06
2025-04-07 13:57:45.095781088,3.9346150515484624e-07
2025-04-07 13:57:45.111406088,1.68401709288446e-06
2025-04-07 13:57:45.127031087,2.3563698050566018e-06
2025-04-07 13:57:45.142656088,2.112156835210044e-06
2025-04-07 13:57:45.158281088,1.0463554644957185e-06
2025-04-07 13:57:45.173906088,-3.934367214242229e-07
2025-04-07 13:57:45.189531088,-1.6839943555169157e-06
2025-04-07 13:57:45.205156088,-2.3563491140521364e-06
2025-04-07 13:57:45.220781088,-2.112138417942333e-06
2025-04-07 13:57:45.236406088,-1.0463388662174111e-06
2025-04-07 13:57:45.252031088,3.934517280868022e-07
2025-04-07 13:57:45.267656088,1.6840078842506045e-06
2025-04-07 13:57:45.283281088,2.3563613922306104e-06
2025-04-07 13:57:45.298906088,2.112149104505079e-06
2025-04-07 13:57:45.314531088,1.0463488706591306e-06
2025-04-07 13:57:45.330156088,-3.93442405766109e-07
2025-04-07 13:57:45.345781088,-1.6839990166772623e-06
2025-04-07 13:57:45.361406088,-2.356352979404619e-06
2025-04-07 13:57:45.377031088,-2.112140919052763e-06
2025-04-07 13:57:45.392656088,-1.0463404578331392e-06
2025-04-07 13:57:45.408281088,3.934508185921004e-07
2025-04-07 13:57:45.423906088,1.6840074295032537e-06
2025-04-07 13:57:45.439531088,2.356361619604286e-06
2025-04-07 13:57:45.455156088,2.112150696120807e-06
2025-04-07 13:57:45.470781088,1.0463513717695605e-06
2025-04-07 13:57:45.486406088,-3.934387677873019e-07
2025-04-07 13:57:45.502031087,-1.6839944692037534e-06
2025-04-07 13:57:45.517656087,-2.3563475224364083e-06
2025-04-07 13:57:45.533281087,-2.112135234710877e-06
2025-04-07 13:57:45.548906088,-1.0463345461175777e-06
2025-04-07 13:57:45.564531088,3.9345695768133737e-07
2025-04-07 13:57:45.580156088,1.6840139096530038e-06
2025-04-07 13:57:45.595781088,2.356368440814549e-06
2025-04-07 13:57:45.611406088,2.112157289957395e-06
2025-04-07 13:57:45.627031088,1.046357738232473e-06
2025-04-07 13:57:45.642656088,-3.934328560717404e-07
2025-04-07 13:57:45.658281088,-1.683988898548705e-06
2025-04-07 13:57:45.673906088,-2.356342292841873e-06
2025-04-07 13:57:45.689531088,-2.1121300051163416e-06
2025-04-07 13:57:45.705156088,-1.046329543896718e-06
2025-04-07 13:57:45.720781088,3.934617325285217e-07
2025-04-07 13:57:45.736406088,1.6840184571265127e-06
2025-04-07 13:57:45.752031088,2.3563723061670316e-06
2025-04-07 13:57:45.767656088,2.1121602458151756e-06
2025-04-07 13:57:45.783281088,1.046359784595552e-06
2025-04-07 13:57:45.798906088,-3.9343149182968773e-07
2025-04-07 13:57:45.814531088,-1.6839882164276787e-06
2025-04-07 13:57:45.830156088,-2.356342292841873e-06
2025-04-07 13:57:45.845781088,-2.1121304598636925e-06
2025-04-07 13:57:45.861406088,-1.0463302260177443e-06
2025-04-07 13:57:45.877031088,3.9346105040749535e-07
2025-04-07 13:57:45.892656088,1.6840177750054863e-06
2025-04-07 13:57:45.908281088,2.3563716240460053e-06
2025-04-07 13:57:45.923906088,2.1121595636941493e-06
2025-04-07 13:57:45.939531088,1.0463591024745256e-06
2025-04-07 13:57:45.955156088,-3.9343217395071406e-07
2025-04-07 13:57:45.970781088,-1.683988898548705e-06
2025-04-07 13:57:45.986406088,-2.356343202336575e-06
2025-04-07 13:57:46.002031088,-2.1121320514794206e-06
2025-04-07 13:57:46.017656088,-1.0463327271281742e-06
2025-04-07 13:57:46.033281088,3.9345741242868826e-07
2025-04-07 13:57:46.048906088,1.684013000158302e-06
2025-04-07 13:57:46.064531088,2.3563659397041192e-06
2025-04-07 13:57:46.080156088,2.112153879352263e-06
2025-04-07 13:57:46.095781088,1.046353190758964e-06
2025-04-07 13:57:46.111406088,-3.93438313039951e-07
2025-04-07 13:57:46.127031087,-1.6839951513247797e-06
2025-04-07 13:57:46.142656088,-2.3563495687994873e-06
2025-04-07 13:57:46.158281088,-2.1121386453160085e-06
2025-04-07 13:57:46.173906088,-1.0463390935910866e-06
2025-04-07 13:57:46.189531088,3.9345150071312673e-07
2025-04-07 13:57:46.205156088,1.684007656876929e-06
2025-04-07 13:57:46.220781088,2.356361164856935e-06
2025-04-07 13:57:46.236406088,2.112149104505079e-06
2025-04-07 13:57:46.252031088,1.046349098032806e-06
2025-04-07 13:57:46.267656088,-3.934417236450827e-07
2025-04-07 13:57:46.283281088,-1.6839979934957228e-06
2025-04-07 13:57:46.298906088,-2.3563516151625663e-06
2025-04-07 13:57:46.314531088,-2.112139327437035e-06
2025-04-07 13:57:46.330156088,-1.0463388662174111e-06
2025-04-07 13:57:46.345781088,3.9345263758150395e-07
2025-04-07 13:57:46.361406088,1.6840095895531704e-06
2025-04-07 13:57:46.377031088,2.356363665967365e-06
2025-04-07 13:57:46.392656088,2.112151832989184e-06
2025-04-07 13:57:46.408281088,1.046351599143236e-06
2025-04-07 13:57:46.423906088,-3.9343944990832824e-07
2025-04-07 13:57:46.439531088,-1.6839960608194815e-06
2025-04-07 13:57:46.455156088,-2.356350023546838e-06
2025-04-07 13:57:46.470781088,-2.1121381905686576e-06
2025-04-07 13:57:46.486406088,-1.046337729349034e-06
2025-04-07 13:57:46.502031087,3.9345377444988117e-07
2025-04-07 13:57:46.517656087,1.6840107264215476e-06
2025-04-07 13:57:46.533281087,2.3563650302094175e-06
2025-04-07 13:57:46.548906088,2.112153879352263e-06
2025-04-07 13:57:46.564531088,1.046353645506315e-06
2025-04-07 13:57:46.580156088,-3.934376309189247e-07
2025-04-07 13:57:46.595781088,-1.683994241830078e-06
2025-04-07 13:57:46.611406088,-2.3563479771837592e-06
2025-04-07 13:57:46.627031088,-2.1121365989529295e-06
2025-04-07 13:57:46.642656088,-1.0463363651069812e-06
2025-04-07 13:57:46.658281088,3.9345468394458294e-07
2025-04-07 13:57:46.673906088,1.6840110674820608e-06
2025-04-07 13:57:46.689531088,2.356364802835742e-06
2025-04-07 13:57:46.705156088,2.112153197231237e-06
2025-04-07 13:57:46.720781088,1.046353645506315e-06
2025-04-07 13:57:46.736406088,-3.9343694879789837e-07
2025-04-07 13:57:46.752031088,-1.683992991274863e-06
2025-04-07 13:57:46.767656088,-2.3563461581943557e-06
2025-04-07 13:57:46.783281088,-2.1121336430951487e-06
2025-04-07 13:57:46.798906088,-1.046333181875525e-06
2025-04-07 13:57:46.814531088,3.9345786717603914e-07
2025-04-07 13:57:46.830156088,1.6840143644003547e-06
2025-04-07 13:57:46.845781088,2.3563682134408737e-06
2025-04-07 13:57:46.861406088,2.1121556983416667e-06
2025-04-07 13:57:46.877031088,1.0463547823746921e-06
2025-04-07 13:57:46.892656088,-3.934371761715738e-07
2025-04-07 13:57:46.908281088,-1.6839945828905911e-06
2025-04-07 13:57:46.923906088,-2.3563491140521364e-06
2025-04-07 13:57:46.939531088,-2.1121381905686576e-06
2025-04-07 13:57:46.955156088,-1.0463388662174111e-06
2025-04-07 13:57:46.970781088,3.9345150071312673e-07
2025-04-07 13:57:46.986406088,1.6840074295032537e-06
2025-04-07 13:57:47.002031088,2.356360710109584e-06
2025-04-07 13:57:47.017656088,2.112148195010377e-06
2025-04-07 13:57:47.033281088,1.0463477337907534e-06
2025-04-07 13:57:47.048906088,-3.9344377000816166e-07
2025-04-07 13:57:47.064531088,-1.6840008356666658e-06
2025-04-07 13:57:47.080156088,-2.3563552531413734e-06
2025-04-07 13:57:47.095781088,-2.1121443296578946e-06
2025-04-07 13:57:47.111406088,-1.046345005306648e-06
2025-04-07 13:57:47.127031087,3.934451342502143e-07
2025-04-07 13:57:47.142656088,1.684000721979828e-06
2025-04-07 13:57:47.158281088,2.35635343415197e-06
2025-04-07 13:57:47.173906088,2.1121406916790875e-06
2025-04-07 13:57:47.189531088,1.0463390935910866e-06
2025-04-07 13:57:47.205156088,-3.934535470762057e-07
2025-04-07 13:57:47.220781088,-1.6840116359162494e-06
2025-04-07 13:57:47.236406088,-2.3563670765724964e-06
2025-04-07 13:57:47.252031088,-2.112156835210044e-06
2025-04-07 13:57:47.267656088,-1.046357738232473e-06
2025-04-07 13:57:47.283281088,3.934324013243895e-07
2025-04-07 13:57:47.298906088,1.6839879890540033e-06
2025-04-07 13:57:47.314531088,2.3563409285998205e-06
2025-04-07 13:57:47.330156088,2.112128186126938e-06
2025-04-07 13:57:47.345781088,1.0463268154126126e-06
2025-04-07 13:57:47.361406088,-3.9346514313365333e-07
2025-04-07 13:57:47.377031088,-1.684022436165833e-06
2025-04-07 13:57:47.392656088,-2.3563768536405405e-06
2025-04-07 13:57:47.408281088,-2.1121652480360353e-06
2025-04-07 13:57:47.423906088,-1.0463652415637625e-06
2025-04-07 13:57:47.439531088,3.9342580748780165e-07
2025-04-07 13:57:47.455156088,1.683982418398955e-06
2025-04-07 13:57:47.470781088,2.3563363811263116e-06
2025-04-07 13:57:47.486406088,2.112124548148131e-06
2025-04-07 13:57:47.502031087,1.0463243143021828e-06
2025-04-07 13:57:47.517656087,-3.9346673474938143e-07
2025-04-07 13:57:47.533281087,-1.684023231973697e-06
2025-04-07 13:57:47.548906088,-2.356377081014216e-06
2025-04-07 13:57:47.564531088,-2.11216502066236e-06
2025-04-07 13:57:47.580156088,-1.0463645594427362e-06
2025-04-07 13:57:47.595781088,3.9342694435617886e-07
2025-04-07 13:57:47.611406088,1.683984010014683e-06
2025-04-07 13:57:47.627031088,2.3563384274893906e-06
2025-04-07 13:57:47.642656088,2.1121275040059118e-06
2025-04-07 13:57:47.658281088,1.0463281796546653e-06
2025-04-07 13:57:47.673906088,-3.9346218727587257e-07
2025-04-07 13:57:47.689531088,-1.6840180023791618e-06
2025-04-07 13:57:47.705156088,-2.356370941924979e-06
2025-04-07 13:57:47.720781088,-2.112158426825772e-06
2025-04-07 13:57:47.736406088,-1.046357283485122e-06
2025-04-07 13:57:47.752031088,3.934349024348194e-07
2025-04-07 13:57:47.767656088,1.6839926502143499e-06
2025-04-07 13:57:47.783281088,2.3563477498100838e-06
2025-04-07 13:57:47.798906088,2.112137281073956e-06
2025-04-07 13:57:47.814531088,1.0463381840963848e-06
2025-04-07 13:57:47.830156088,-3.934519554604776e-07
2025-04-07 13:57:47.845781088,-1.684007656876929e-06
2025-04-07 13:57:47.861406088,-2.356360710109584e-06
2025-04-07 13:57:47.877031088,-2.112148195010377e-06
2025-04-07 13:57:47.892656088,-1.0463472790434025e-06
2025-04-07 13:57:47.908281088,3.93444452129188e-07
2025-04-07 13:57:47.923906088,1.6840016314745299e-06
2025-04-07 13:57:47.939531088,2.3563559352623997e-06
2025-04-07 13:57:47.955156088,2.1121443296578946e-06
2025-04-07 13:57:47.970781088,1.0463443231856218e-06
2025-04-07 13:57:47.986406088,-3.93446498492267e-07
2025-04-07 13:57:48.002031088,-1.6840026546560694e-06
2025-04-07 13:57:48.017656088,-2.3563559352623997e-06
2025-04-07 13:57:48.033281088,-2.1121431927895173e-06
2025-04-07 13:57:48.048906088,-1.0463420494488673e-06
2025-04-07 13:57:48.064531088,3.9344990909739863e-07
2025-04-07 13:57:48.080156088,1.684007315816416e-06
2025-04-07 13:57:48.095781088,2.3563620743516367e-06
2025-04-07 13:57:48.111406088,2.1121509234944824e-06
2025-04-07 13:57:48.127031087,1.0463513717695605e-06
2025-04-07 13:57:48.142656088,-3.9343899516097736e-07
2025-04-07 13:57:48.158281088,-1.6839949239511043e-06
2025-04-07 13:57:48.173906088,-2.35634843193111e-06
2025-04-07 13:57:48.189531088,-2.1121365989529295e-06
2025-04-07 13:57:48.205156088,-1.0463359103596304e-06
2025-04-07 13:57:48.220781088,3.934555934392847e-07
2025-04-07 13:57:48.236406088,1.6840124317241134e-06
2025-04-07 13:57:48.252031088,2.35636639445147e-06
2025-04-07 13:57:48.267656088,2.112155243594316e-06
2025-04-07 13:57:48.283281088,1.0463550097483676e-06
2025-04-07 13:57:48.298906088,-3.9343626667687204e-07
2025-04-07 13:57:48.314531088,-1.683992991274863e-06
2025-04-07 13:57:48.330156088,-2.3563470676890574e-06
2025-04-07 13:57:48.345781088,-2.1121354620845523e-06
2025-04-07 13:57:48.361406088,-1.0463359103596304e-06
2025-04-07 13:57:48.377031088,3.934544565709075e-07
2025-04-07 13:57:48.392656088,1.6840102716741967e-06
2025-04-07 13:57:48.408281088,2.356363211220014e-06
2025-04-07 13:57:48.423906088,2.1121504687471315e-06
2025-04-07 13:57:48.439531088,1.046349552780157e-06
2025-04-07 13:57:48.455156088,-3.934419510187581e-07
2025-04-07 13:57:48.470781088,-1.6839987893035868e-06
2025-04-07 13:57:48.486406088,-2.356352979404619e-06
2025-04-07 13:57:48.502031087,-2.1121411464264384e-06
2025-04-07 13:57:48.517656087,-1.0463406852068147e-06
2025-04-07 13:57:48.533281087,3.9345059121842496e-07
2025-04-07 13:57:48.548906088,1.6840072021295782e-06
2025-04-07 13:57:48.564531088,2.356361164856935e-06
2025-04-07 13:57:48.580156088,2.112149104505079e-06
2025-04-07 13:57:48.595781088,1.0463488706591306e-06
2025-04-07 13:57:48.611406088,-3.93442405766109e-07
2025-04-07 13:57:48.627031088,-1.6839990166772623e-06
2025-04-07 13:57:48.642656088,-2.356352979404619e-06
2025-04-07 13:57:48.658281088,-2.112140919052763e-06
2025-04-07 13:57:48.673906088,-1.0463404578331392e-06
2025-04-07 13:57:48.689531088,3.934508185921004e-07
2025-04-07 13:57:48.705156088,1.6840074295032537e-06
2025-04-07 13:57:48.720781088,2.356361619604286e-06
2025-04-07 13:57:48.736406088,2.112150696120807e-06
2025-04-07 13:57:48.752031088,1.0463513717695605e-06
2025-04-07 13:57:48.767656088,-3.934387677873019e-07
2025-04-07 13:57:48.783281088,-1.6839944692037534e-06
2025-04-07 13:57:48.798906088,-2.3563475224364083e-06
2025-04-07 13:57:48.814531088,-2.112135234710877e-06
2025-04-07 13:57:48.830156088,-1.0463345461175777e-06
2025-04-07 13:57:48.845781088,3.9345695768133737e-07
2025-04-07 13:57:48.861406088,1.6840139096530038e-06
2025-04-07 13:57:48.877031088,2.356368440814549e-06
2025-04-07 13:57:48.892656088,2.112157289957395e-06
2025-04-07 13:57:48.908281088,1.046357738232473e-06
2025-04-07 13:57:48.923906088,-3.934328560717404e-07
2025-04-07 13:57:48.939531088,-1.683988898548705e-06
2025-04-07 13:57:48.955156088,-2.356342292841873e-06
2025-04-07 13:57:48.970781088,-2.1121300051163416e-06
2025-04-07 13:57:48.986406088,-1.046329543896718e-06
2025-04-07 13:57:49.002031088,3.934617325285217e-07
2025-04-07 13:57:49.017656088,1.6840184571265127e-06
2025-04-07 13:57:49.033281088,2.3563723061670316e-06
2025-04-07 13:57:49.048906088,2.1121602458151756e-06
2025-04-07 13:57:49.064531088,1.046359784595552e-06
2025-04-07 13:57:49.080156088,-3.9343149182968773e-07
2025-04-07 13:57:49.095781088,-1.6839882164276787e-06
2025-04-07 13:57:49.111406088,-2.356342292841873e-06
2025-04-07 13:57:49.127031087,-2.1121304598636925e-06
2025-04-07 13:57:49.142656088,-1.0463302260177443e-06
2025-04-07 13:57:49.158281088,3.9346105040749535e-07
2025-04-07 13:57:49.173906088,1.6840177750054863e-06
2025-04-07 13:57:49.189531088,2.3563716240460053e-06
2025-04-07 13:57:49.205156088,2.1121595636941493e-06
2025-04-07 13:57:49.220781088,1.0463591024745256e-06
2025-04-07 13:57:49.236406088,-3.9343217395071406e-07
2025-04-07 13:57:49.252031088,-1.683988898548705e-06
2025-04-07 13:57:49.267656088,-2.356343202336575e-06
2025-04-07 13:57:49.283281088,-2.1121320514794206e-06
2025-04-07 13:57:49.298906088,-1.0463327271281742e-06
2025-04-07 13:57:49.314531088,3.9345741242868826e-07
2025-04-07 13:57:49.330156088,1.684013000158302e-06
2025-04-07 13:57:49.345781088,2.3563659397041192e-06
2025-04-07 13:57:49.361406088,2.112153879352263e-06
2025-04-07 13:57:49.377031088,1.046353190758964e-06
2025-04-07 13:57:49.392656088,-3.93438313039951e-07
2025-04-07 13:57:49.408281088,-1.6839951513247797e-06
2025-04-07 13:57:49.423906088,-2.3563495687994873e-06
2025-04-07 13:57:49.439531088,-2.1121386453160085e-06
2025-04-07 13:57:49.455156088,-1.0463390935910866e-06
2025-04-07 13:57:49.470781088,3.9345150071312673e-07
2025-04-07 13:57:49.486406088,1.684007656876929e-06
2025-04-07 13:57:49.502031087,2.356361164856935e-06
2025-04-07 13:57:49.517656087,2.112149104505079e-06
2025-04-07 13:57:49.533281087,1.046349098032806e-06
2025-04-07 13:57:49.548906088,-3.934417236450827e-07
2025-04-07 13:57:49.564531088,-1.6839979934957228e-06
2025-04-07 13:57:49.580156088,-2.3563516151625663e-06
2025-04-07 13:57:49.595781088,-2.112139327437035e-06
2025-04-07 13:57:49.611406088,-1.0463388662174111e-06
2025-04-07 13:57:49.627031088,3.9345263758150395e-07
2025-04-07 13:57:49.642656088,1.6840095895531704e-06
2025-04-07 13:57:49.658281088,2.356363665967365e-06
2025-04-07 13:57:49.673906088,2.112151832989184e-06
2025-04-07 13:57:49.689531088,1.046351599143236e-06
2025-04-07 13:57:49.705156088,-3.9343944990832824e-07
2025-04-07 13:57:49.720781088,-1.6839960608194815e-06
2025-04-07 13:57:49.736406088,-2.356350023546838e-06
2025-04-07 13:57:49.752031088,-2.1121381905686576e-06
2025-04-07 13:57:49.767656088,-1.046337729349034e-06
2025-04-07 13:57:49.783281088,3.9345377444988117e-07
2025-04-07 13:57:49.798906088,1.6840107264215476e-06
2025-04-07 13:57:49.814531088,2.3563650302094175e-06
2025-04-07 13:57:49.830156088,2.112153879352263e-06
2025-04-07 13:57:49.845781088,1.046353645506315e-06
2025-04-07 13:57:49.861406088,-3.934376309189247e-07
2025-04-07 13:57:49.877031088,-1.683994241830078e-06
2025-04-07 13:57:49.892656088,-2.3563479771837592e-06
2025-04-07 13:57:49.908281088,-2.1121365989529295e-06
2025-04-07 13:57:49.923906088,-1.0463363651069812e-06
2025-04-07 13:57:49.939531088,3.9345468394458294e-07
2025-04-07 13:57:49.955156088,1.6840110674820608e-06
2025-04-07 13:57:49.970781088,2.356364802835742e-06
2025-04-07 13:57:49.986406088,2.112153197231237e-06
2025-04-07 13:57:50.002031088,1.046353645506315e-06
2025-04-07 13:57:50.017656088,-3.9343694879789837e-07
2025-04-07 13:57:50.033281088,-1.683992991274863e-06
2025-04-07 13:57:50.048906088,-2.3563461581943557e-06
2025-04-07 13:57:50.064531088,-2.1121336430951487e-06
2025-04-07 13:57:50.080156088,-1.046333181875525e-06
2025-04-07 13:57:50.095781088,3.9345786717603914e-07
2025-04-07 13:57:50.111406088,1.6840143644003547e-06
2025-04-07 13:57:50.127031087,2.3563682134408737e-06
2025-04-07 13:57:50.142656088,2.1121556983416667e-06
2025-04-07 13:57:50.158281088,1.0463547823746921e-06
2025-04-07 13:57:50.173906088,-3.934371761715738e-07
2025-04-07 13:57:50.189531088,-1.6839945828905911e-06
2025-04-07 13:57:50.205156088,-2.3563491140521364e-06
2025-04-07 13:57:50.220781088,-2.1121381905686576e-06
2025-04-07 13:57:50.236406088,-1.0463388662174111e-06
2025-04-07 13:57:50.252031088,3.9345150071312673e-07
2025-04-07 13:57:50.267656088,1.6840074295032537e-06
2025-04-07 13:57:50.283281088,2.356360710109584e-06
2025-04-07 13:57:50.298906088,2.112148195010377e-06
2025-04-07 13:57:50.314531088,1.0463477337907534e-06
2025-04-07 13:57:50.330156088,-3.9344377000816166e-07
2025-04-07 13:57:50.345781088,-1.6840008356666658e-06
2025-04-07 13:57:50.361406088,-2.3563552531413734e-06
2025-04-07 13:57:50.377031088,-2.1121443296578946e-06
2025-04-07 13:57:50.392656088,-1.046345005306648e-06
2025-04-07 13:57:50.408281088,3.934451342502143e-07
2025-04-07 13:57:50.423906088,1.684000721979828e-06
2025-04-07 13:57:50.439531088,2.35635343415197e-06
2025-04-07 13:57:50.455156088,2.1121406916790875e-06
2025-04-07 13:57:50.470781088,1.0463390935910866e-06
2025-04-07 13:57:50.486406088,-3.934535470762057e-07
2025-04-07 13:57:50.502031087,-1.6840116359162494e-06
2025-04-07 13:57:50.517656087,-2.3563670765724964e-06
2025-04-07 13:57:50.533281087,-2.112156835210044e-06
2025-04-07 13:57:50.548906088,-1.046357738232473e-06
2025-04-07 13:57:50.564531088,3.934324013243895e-07
2025-04-07 13:57:50.580156088,1.6839879890540033e-06
2025-04-07 13:57:50.595781088,2.3563409285998205e-06
2025-04-07 13:57:50.611406088,2.112128186126938e-06
2025-04-07 13:57:50.627031088,1.0463268154126126e-06
2025-04-07 13:57:50.642656088,-3.9346514313365333e-07
2025-04-07 13:57:50.658281088,-1.684022436165833e-06
2025-04-07 13:57:50.673906088,-2.3563768536405405e-06
2025-04-07 13:57:50.689531088,-2.1121652480360353e-06
2025-04-07 13:57:50.705156088,-1.0463652415637625e-06
2025-04-07 13:57:50.720781088,3.9342580748780165e-07
2025-04-07 13:57:50.736406088,1.683982418398955e-06
2025-04-07 13:57:50.752031088,2.3563363811263116e-06
2025-04-07 13:57:50.767656088,2.112124548148131e-06
2025-04-07 13:57:50.783281088,1.0463243143021828e-06
2025-04-07 13:57:50.798906088,-3.9346673474938143e-07
2025-04-07 13:57:50.814531088,-1.684023231973697e-06
2025-04-07 13:57:50.830156088,-2.356377081014216e-06
2025-04-07 13:57:50.845781088,-2.11216502066236e-06
2025-04-07 13:57:50.861406088,-1.0463645594427362e-06
2025-04-07 13:57:50.877031088,3.9342694435617886e-07
2025-04-07 13:57:50.892656088,1.683984010014683e-06
2025-04-07 13:57:50.908281088,2.3563384274893906e-06
2025-04-07 13:57:50.923906088,2.1121275040059118e-06
2025-04-07 13:57:50.939531088,1.0463281796546653e-06
2025-04-07 13:57:50.955156088,-3.9346218727587257e-07
2025-04-07 13:57:50.970781088,-1.6840180023791618e-06
2025-04-07 13:57:50.986406088,-2.356370941924979e-06
2025-04-07 13:57:51.002031088,-2.112158426825772e-06
2025-04-07 13:57:51.017656088,-1.046357283485122e-06
2025-04-07 13:57:51.033281088,3.934349024348194e-07
2025-04-07 13:57:51.048906088,1.6839926502143499e-06
2025-04-07 13:57:51.064531088,2.3563477498100838e-06
2025-04-07 13:57:51.080156088,2.112137281073956e-06
2025-04-07 13:57:51.095781088,1.0463381840963848e-06
2025-04-07 13:57:51.111406088,-3.934519554604776e-07
2025-04-07 13:57:51.127031087,-1.684007656876929e-06
2025-04-07 13:57:51.142656088,-2.356360710109584e-06
2025-04-07 13:57:51.158281088,-2.112148195010377e-06
2025-04-07 13:57:51.173906088,-1.0463472790434025e-06
2025-04-07 13:57:51.189531088,3.93444452129188e-07
2025-04-07 13:57:51.205156088,1.6840016314745299e-06
2025-04-07 13:57:51.220781088,2.3563559352623997e-06
2025-04-07 13:57:51.236406088,2.1121443296578946e-06
2025-04-07 13:57:51.252031088,1.0463443231856218e-06
2025-04-07 13:57:51.267656088,-3.93446498492267e-07
2025-04-07 13:57:51.283281088,-1.6840026546560694e-06
2025-04-07 13:57:51.298906088,-2.3563559352623997e-06
2025-04-07 13:57:51.314531088,-2.1121431927895173e-06
2025-04-07 13:57:51.330156088,-1.0463420494488673e-06
2025-04-07 13:57:51.345781088,3.9344990909739863e-07
2025-04-07 13:57:51.361406088,1.684007315816416e-06
2025-04-07 13:57:51.377031088,2.3563620743516367e-06
2025-04-07 13:57:51.392656088,2.1121509234944824e-06
2025-04-07 13:57:51.408281088,1.0463513717695605e-06
2025-04-07 13:57:51.423906088,-3.9343899516097736e-07
2025-04-07 13:57:51.439531088,-1.6839949239511043e-06
2025-04-07 13:57:51.455156088,-2.35634843193111e-06
2025-04-07 13:57:51.470781088,-2.1121365989529295e-06
2025-04-07 13:57:51.486406088,-1.0463359103596304e-06
2025-04-07 13:57:51.502031087,3.934555934392847e-07
2025-04-07 13:57:51.517656087,1.6840124317241134e-06
2025-04-07 13:57:51.533281087,2.35636639445147e-06
2025-04-07 13:57:51.548906088,2.112155243594316e-06
2025-04-07 13:57:51.564531088,1.0463550097483676e-06
2025-04-07 13:57:51.580156088,-3.9343626667687204e-07
2025-04-07 13:57:51.595781088,-1.683992991274863e-06
2025-04-07 13:57:51.611406088,-2.3563470676890574e-06
2025-04-07 13:57:51.627031088,-2.1121354620845523e-06
2025-04-07 13:57:51.642656088,-1.0463359103596304e-06
2025-04-07 13:57:51.658281088,3.934544565709075e-07
2025-04-07 13:57:51.673906088,1.6840102716741967e-06
2025-04-07 13:57:51.689531088,2.356363211220014e-06
2025-04-07 13:57:51.705156088,2.1121504687471315e-06
2025-04-07 13:57:51.720781088,1.046349552780157e-06
2025-04-07 13:57:51.736406088,-3.934419510187581e-07
2025-04-07 13:57:51.752031088,-1.6839987893035868e-06
2025-04-07 13:57:51.767656088,-2.356352979404619e-06
2025-04-07 13:57:51.783281088,-2.1121411464264384e-06
2025-04-07 13:57:51.798906088,-1.0463406852068147e-06
2025-04-07 13:57:51.814531088,3.9345059121842496e-07
2025-04-07 13:57:51.830156088,1.6840072021295782e-06
2025-04-07 13:57:51.845781088,2.356361164856935e-06
2025-04-07 13:57:51.861406088,2.112149104505079e-06
2025-04-07 13:57:51.877031088,1.0463488706591306e-06
2025-04-07 13:57:51.892656088,-3.93442405766109e-07
2025-04-07 13:57:51.908281088,-1.6839990166772623e-06
2025-04-07 13:57:51.923906088,-2.356352979404619e-06
2025-04-07 13:57:51.939531088,-2.112140919052763e-06
2025-04-07 13:57:51.955156088,-1.0463404578331392e-06
2025-04-07 13:57:51.970781088,3.934508185921004e-07
2025-04-07 13:57:51.986406088,1.6840074295032537e-06
2025-04-07 13:57:52.002031088,2.356361619604286e-06
2025-04-07 13:57:52.017656088,2.112150696120807e-06
2025-04-07 13:57:52.033281088,1.0463513717695605e-06
2025-04-07 13:57:52.048906088,-3.934387677873019e-07
2025-04-07 13:57:52.064531088,-1.6839944692037534e-06
2025-04-07 13:57:52.080156088,-2.3563475224364083e-06
2025-04-07 13:57:52.095781088,-2.112135234710877e-06
2025-04-07 13:57:52.111406088,-1.0463345461175777e-06
2025-04-07 13:57:52.127031087,3.9345695768133737e-07
2025-04-07 13:57:52.142656088,1.6840139096530038e-06
2025-04-07 13:57:52.158281088,2.356368440814549e-06
2025-04-07 13:57:52.173906088,2.112157289957395e-06
2025-04-07 13:57:52.189531088,1.046357738232473e-06
2025-04-07 13:57:52.205156088,-3.934328560717404e-07
2025-04-07 13:57:52.220781088,-1.683988898548705e-06
2025-04-07 13:57:52.236406088,-2.356342292841873e-06
2025-04-07 13:57:52.252031088,-2.1121300051163416e-06
2025-04-07 13:57:52.267656088,-1.046329543896718e-06
2025-04-07 13:57:52.283281088,3.934617325285217e-07
2025-04-07 13:57:52.298906088,1.6840184571265127e-06
2025-04-07 13:57:52.314531088,2.3563723061670316e-06
2025-04-07 13:57:52.330156088,2.1121602458151756e-06
2025-04-07 13:57:52.345781088,1.046359784595552e-06
2025-04-07 13:57:52.361406088,-3.9343149182968773e-07
2025-04-07 13:57:52.377031088,-1.6839882164276787e-06
2025-04-07 13:57:52.392656088,-2.356342292841873e-06
2025-04-07 13:57:52.408281088,-2.1121304598636925e-06
2025-04-07 13:57:52.423906088,-1.0463302260177443e-06
2025-04-07 13:57:52.439531088,3.9346105040749535e-07
2025-04-07 13:57:52.455156088,1.6840177750054863e-06
2025-04-07 13:57:52.470781088,2.3563716240460053e-06
2025-04-07 13:57:52.486406088,2.1121595636941493e-06
2025-04-07 13:57:52.502031087,1.0463591024745256e-06
2025-04-07 13:57:52.517656087,-3.9343217395071406e-07
2025-04-07 13:57:52.533281087,-1.683988898548705e-06
2025-04-07 13:57:52.548906088,-2.356343202336575e-06
2025-04-07 13:57:52.564531088,-2.1121320514794206e-06
2025-04-07 13:57:52.580156088,-1.0463327271281742e-06
2025-04-07 13:57:52.595781088,3.9345741242868826e-07
2025-04-07 13:57:52.611406088,1.684013000158302e-06
2025-04-07 13:57:52.627031088,2.3563659397041192e-06
2025-04-07 13:57:52.642656088,2.112153879352263e-06
2025-04-07 13:57:52.658281088,1.046353190758964e-06
2025-04-07 13:57:52.673906088,-3.93438313039951e-07
2025-04-07 13:57:52.689531088,-1.6839951513247797e-06
2025-04-07 13:57:52.705156088,-2.3563495687994873e-06
2025-04-07 13:57:52.720781088,-2.1121386453160085e-06
2025-04-07 13:57:52.736406088,-1.0463390935910866e-06
2025-04-07 13:57:52.752031088,3.9345150071312673e-07
2025-04-07 13:57:52.767656088,1.684007656876929e-06
2025-04-07 13:57:52.783281088,2.356361164856935e-06
2025-04-07 13:57:52.798906088,2.112149104505079e-06
2025-04-07 13:57:52.814531088,1.046349098032806e-06
2025-04-07 13:57:52.830156088,-3.934417236450827e-07
2025-04-07 13:57:52.845781088,-1.6839979934957228e-06
2025-04-07 13:57:52.861406088,-2.3563516151625663e-06
2025-04-07 13:57:52.877031088,-2.112139327437035e-06
2025-04-07 13:57:52.892656088,-1.0463388662174111e-06
2025-04-07 13:57:52.908281088,3.9345263758150395e-07
2025-04-07 13:57:52.923906088,1.6840095895531704e-06
2025-04-07 13:57:52.939531088,2.356363665967365e-06
2025-04-07 13:57:52.955156088,2.112151832989184e-06
2025-04-07 13:57:52.970781088,1.046351599143236e-06
2025-04-07 13:57:52.986406088,-3.9343944990832824e-07
2025-04-07 13:57:53.002031088,-1.6839960608194815e-06
2025-04-07 13:57:53.017656088,-2.356350023546838e-06
2025-04-07 13:57:53.033281088,-2.1121381905686576e-06
2025-04-07 13:57:53.048906088,-1.046337729349034e-06
2025-04-07 13:57:53.064531088,3.9345377444988117e-07
2025-04-07 13:57:53.080156088,1.6840107264215476e-06
2025-04-07 13:57:53.095781088,2.3563650302094175e-06
2025-04-07 13:57:53.111406088,2.112153879352263e-06
2025-04-07 13:57:53.127031087,1.046353645506315e-06
2025-04-07 13:57:53.142656088,-3.934376309189247e-07
2025-04-07 13:57:53.158281088,-1.683994241830078e-06
2025-04-07 13:57:53.173906088,-2.3563479771837592e-06
2025-04-07 13:57:53.189531088,-2.1121365989529295e-06
2025-04-07 13:57:53.205156088,-1.0463363651069812e-06
2025-04-07 13:57:53.220781088,3.9345468394458294e-07
2025-04-07 13:57:53.236406088,1.6840110674820608e-06
2025-04-07 13:57:53.252031088,2.356364802835742e-06
2025-04-07 13:57:53.267656088,2.112153197231237e-06
2025-04-07 13:57:53.283281088,1.046353645506315e-06
2025-04-07 13:57:53.298906088,-3.9343694879789837e-07
2025-04-07 13:57:53.314531088,-1.683992991274863e-06
2025-04-07 13:57:53.330156088,-2.3563461581943557e-06
2025-04-07 13:57:53.345781088,-2.1121336430951487e-06
2025-04-07 13:57:53.361406088,-1.046333181875525e-06
2025-04-07 13:57:53.377031088,3.9345786717603914e-07
2025-04-07 13:57:53.392656088,1.6840143644003547e-06
2025-04-07 13:57:53.408281088,2.3563682134408737e-06
2025-04-07 13:57:53.423906088,2.1121556983416667e-06
2025-04-07 13:57:53.439531088,1.0463547823746921e-06
2025-04-07 13:57:53.455156088,-3.934371761715738e-07
2025-04-07 13:57:53.470781088,-1.6839945828905911e-06
2025-04-07 13:57:53.486406088,-2.3563491140521364e-06
2025-04-07 13:57:53.502031087,-2.1121381905686576e-06
2025-04-07 13:57:53.517656087,-1.0463388662174111e-06
2025-04-07 13:57:53.533281087,3.9345150071312673e-07
2025-04-07 13:57:53.548906088,1.6840074295032537e-06
2025-04-07 13:57:53.564531088,2.356360710109584e-06
2025-04-07 13:57:53.580156088,2.112148195010377e-06
2025-04-07 13:57:53.595781088,1.0463477337907534e-06
2025-04-07 13:57:53.611406088,-3.9344377000816166e-07
2025-04-07 13:57:53.627031088,-1.6840008356666658e-06
2025-04-07 13:57:53.642656088,-2.3563552531413734e-06
2025-04-07 13:57:53.658281088,-2.1121443296578946e-06
2025-04-07 13:57:53.673906088,-1.046345005306648e-06
2025-04-07 13:57:53.689531088,3.934451342502143e-07
2025-04-07 13:57:53.705156088,1.684000721979828e-06
2025-04-07 13:57:53.720781088,2.35635343415197e-06
2025-04-07 13:57:53.736406088,2.1121406916790875e-06
2025-04-07 13:57:53.752031088,1.0463390935910866e-06
2025-04-07 13:57:53.767656088,-3.934535470762057e-07
2025-04-07 13:57:53.783281088,-1.6840116359162494e-06
2025-04-07 13:57:53.798906088,-2.3563670765724964e-06
2025-04-07 13:57:53.814531088,-2.112156835210044e-06
2025-04-07 13:57:53.830156088,-1.046357738232473e-06
2025-04-07 13:57:53.845781088,3.934324013243895e-07
2025-04-07 13:57:53.861406088,1.6839879890540033e-06
2025-04-07 13:57:53.877031088,2.3563409285998205e-06
2025-04-07 13:57:53.892656088,2.112128186126938e-06
2025-04-07 13:57:53.908281088,1.0463268154126126e-06
2025-04-07 13:57:53.923906088,-3.9346514313365333e-07
2025-04-07 13:57:53.939531088,-1.684022436165833e-06
2025-04-07 13:57:53.955156088,-2.3563768536405405e-06
2025-04-07 13:57:53.970781088,-2.1121652480360353e-06
2025-04-07 13:57:53.986406088,-1.0463652415637625e-06
2025-04-07 13:57:54.002031088,3.9342580748780165e-07
2025-04-07 13:57:54.017656088,1.683982418398955e-06
2025-04-07 13:57:54.033281088,2.3563363811263116e-06
2025-04-07 13:57:54.048906088,2.112124548148131e-06
2025-04-07 13:57:54.064531088,1.0463243143021828e-06
2025-04-07 13:57:54.080156088,-3.9346673474938143e-07
2025-04-07 13:57:54.095781088,-1.684023231973697e-06
2025-04-07 13:57:54.111406088,-2.356377081014216e-06
2025-04-07 13:57:54.127031087,-2.11216502066236e-06
2025-04-07 13:57:54.142656088,-1.0463645594427362e-06
2025-04-07 13:57:54.158281088,3.9342694435617886e-07
2025-04-07 13:57:54.173906088,1.683984010014683e-06
2025-04-07 13:57:54.189531088,2.3563384274893906e-06
2025-04-07 13:57:54.205156088,2.1121275040059118e-06
2025-04-07 13:57:54.220781088,1.0463281796546653e-06
2025-04-07 13:57:54.236406088,-3.9346218727587257e-07
2025-04-07 13:57:54.252031088,-1.6840180023791618e-06
2025-04-07 13:57:54.267656088,-2.356370941924979e-06
2025-04-07 13:57:54.283281088,-2.112158426825772e-06
2025-04-07 13:57:54.298906088,-1.046357283485122e-06
2025-04-07 13:57:54.314531088,3.934349024348194e-07
2025-04-07 13:57:54.330156088,1.6839926502143499e-06
2025-04-07 13:57:54.345781088,2.3563477498100838e-06
2025-04-07 13:57:54.361406088,2.112137281073956e-06
2025-04-07 13:57:54.377031088,1.0463381840963848e-06
2025-04-07 13:57:54.392656088,-3.934519554604776e-07
2025-04-07 13:57:54.408281088,-1.684007656876929e-06
2025-04-07 13:57:54.423906088,-2.356360710109584e-06
2025-04-07 13:57:54.439531088,-2.112148195010377e-06
2025-04-07 13:57:54.455156088,-1.0463472790434025e-06
2025-04-07 13:57:54.470781088,3.93444452129188e-07
2025-04-07 13:57:54.486406088,1.6840016314745299e-06
2025-04-07 13:57:54.502031087,2.3563559352623997e-06
2025-04-07 13:57:54.517656087,2.1121443296578946e-06
2025-04-07 13:57:54.533281087,1.0463443231856218e-06
2025-04-07 13:57:54.548906088,-3.93446498492267e-07
2025-04-07 13:57:54.564531088,-1.6840026546560694e-06
2025-04-07 13:57:54.580156088,-2.3563559352623997e-06
2025-04-07 13:57:54.595781088,-2.1121431927895173e-06
2025-04-07 13:57:54.611406088,-1.0463420494488673e-06
2025-04-07 13:57:54.627031088,3.9344990909739863e-07
2025-04-07 13:57:54.642656088,1.684007315816416e-06
2025-04-07 13:57:54.658281088,2.3563620743516367e-06
2025-04-07 13:57:54.673906088,2.1121509234944824e-06
2025-04-07 13:57:54.689531088,1.0463513717695605e-06
2025-04-07 13:57:54.705156088,-3.9343899516097736e-07
2025-04-07 13:57:54.720781088,-1.6839949239511043e-06
2025-04-07 13:57:54.736406088,-2.35634843193111e-06
2025-04-07 13:57:54.752031088,-2.1121365989529295e-06
2025-04-07 13:57:54.767656088,-1.0463359103596304e-06
2025-04-07 13:57:54.783281088,3.934555934392847e-07
2025-04-07 13:57:54.798906088,1.6840124317241134e-06
2025-04-07 13:57:54.814531088,2.35636639445147e-06
2025-04-07 13:57:54.830156088,2.112155243594316e-06
2025-04-07 13:57:54.845781088,1.0463550097483676e-06
2025-04-07 13:57:54.861406088,-3.9343626667687204e-07
2025-04-07 13:57:54.877031088,-1.683992991274863e-06
2025-04-07 13:57:54.892656088,-2.3563470676890574e-06
2025-04-07 13:57:54.908281088,-2.1121354620845523e-06
2025-04-07 13:57:54.923906088,-1.0463359103596304e-06
2025-04-07 13:57:54.939531088,3.934544565709075e-07
2025-04-07 13:57:54.955156088,1.6840102716741967e-06
2025-04-07 13:57:54.970781088,2.356363211220014e-06
2025-04-07 13:57:54.986406088,2.1121504687471315e-06
2025-04-07 13:57:55.002031088,1.046349552780157e-06
2025-04-07 13:57:55.017656088,-3.934419510187581e-07
2025-04-07 13:57:55.033281088,-1.6839987893035868e-06
2025-04-07 13:57:55.048906088,-2.356352979404619e-06
2025-04-07 13:57:55.064531088,-2.1121411464264384e-06
2025-04-07 13:57:55.080156088,-1.0463406852068147e-06
2025-04-07 13:57:55.095781088,3.9345059121842496e-07
2025-04-07 13:57:55.111406088,1.6840072021295782e-06
2025-04-07 13:57:55.127031087,2.356361164856935e-06
2025-04-07 13:57:55.142656088,2.112149104505079e-06
2025-04-07 13:57:55.158281088,1.0463488706591306e-06
2025-04-07 13:57:55.173906088,-3.93442405766109e-07
2025-04-07 13:57:55.189531088,-1.6839990166772623e-06
2025-04-07 13:57:55.205156088,-2.356352979404619e-06
2025-04-07 13:57:55.220781088,-2.112140919052763e-06
2025-04-07 13:57:55.236406088,-1.0463404578331392e-06
2025-04-07 13:57:55.252031088,3.934508185921004e-07
2025-04-07 13:57:55.267656088,1.6840074295032537e-06
2025-04-07 13:57:55.283281088,2.356361619604286e-06
2025-04-07 13:57:55.298906088,2.112150696120807e-06
2025-04-07 13:57:55.314531088,1.0463513717695605e-06
2025-04-07 13:57:55.330156088,-3.934387677873019e-07
2025-04-07 13:57:55.345781088,-1.6839944692037534e-06
2025-04-07 13:57:55.361406088,-2.3563475224364083e-06
2025-04-07 13:57:55.377031088,-2.112135234710877e-06
2025-04-07 13:57:55.392656088,-1.0463345461175777e-06
2025-04-07 13:57:55.408281088,3.9345695768133737e-07
2025-04-07 13:57:55.423906088,1.6840139096530038e-06
2025-04-07 13:57:55.439531088,2.356368440814549e-06
2025-04-07 13:57:55.455156088,2.112157289957395e-06
2025-04-07 13:57:55.470781088,1.046357738232473e-06
2025-04-07 13:57:55.486406088,-3.934328560717404e-07
2025-04-07 13:57:55.502031087,-1.683988898548705e-06
2025-04-07 13:57:55.517656087,-2.356342292841873e-06
2025-04-07 13:57:55.533281087,-2.1121300051163416e-06
2025-04-07 13:57:55.548906088,-1.046329543896718e-06
2025-04-07 13:57:55.564531088,3.934617325285217e-07
