timestamp,value
2025-04-07 12:58:09.593187094,0.0
2025-04-07 12:58:09.608812094,0.0006134510040283203
2025-04-07 12:58:09.624437094,0.005642568692564964
2025-04-07 12:58:09.640062094,0.02612730860710144
2025-04-07 12:58:09.655687094,0.082745261490345
2025-04-07 12:58:09.671312094,0.20454782247543335
2025-04-07 12:58:09.686937094,0.42414918541908264
2025-04-07 12:58:09.702562094,0.7695521712303162
2025-04-07 12:58:09.718187094,1.2541236877441406
2025-04-07 12:58:09.733812094,1.868741750717163
2025-04-07 12:58:09.749437094,2.579490900039673
2025-04-07 12:58:09.765062094,3.331247329711914
2025-04-07 12:58:09.780687094,4.055786609649658
2025-04-07 12:58:09.796312094,4.6824870109558105
2025-04-07 12:58:09.811937094,5.149045467376709
2025-04-07 12:58:09.827562094,5.409836769104004
2025-04-07 12:58:09.843187094,5.4408955574035645
2025-04-07 12:58:09.858812094,5.241486549377441
2025-04-07 12:58:09.874437094,4.8324666023254395
2025-04-07 12:58:09.890062094,4.251830577850342
2025-04-07 12:58:09.905687094,3.548344135284424
2025-04-07 12:58:09.921312094,2.7745981216430664
2025-04-07 12:58:09.936937094,1.9807419776916504
2025-04-07 12:58:09.952562094,1.2096903324127197
2025-04-07 12:58:09.968187094,0.49410438537597656
2025-04-07 12:58:09.983812094,-0.14478182792663574
2025-04-07 12:58:09.999437094,-0.6966989040374756
2025-04-07 12:58:10.015062094,-1.160740852355957
2025-04-07 12:58:10.030687094,-1.543229579925537
2025-04-07 12:58:10.046312094,-1.8554152250289917
2025-04-07 12:58:10.061937094,-2.11114239692688
2025-04-07 12:58:10.077562094,-2.3246233463287354
2025-04-07 12:58:10.093187094,-2.508565664291382
2025-04-07 12:58:10.108812094,-2.672858953475952
2025-04-07 12:58:10.124437094,-2.823944330215454
2025-04-07 12:58:10.140062094,-2.964895009994507
2025-04-07 12:58:10.155687094,-3.0961103439331055
2025-04-07 12:58:10.171312094,-3.216404676437378
2025-04-07 12:58:10.186937094,-3.324145793914795
2025-04-07 12:58:10.202562094,-3.4180798530578613
2025-04-07 12:58:10.218187094,-3.497724771499634
2025-04-07 12:58:10.233812094,-3.5634067058563232
2025-04-07 12:58:10.249437094,-3.615999221801758
2025-04-07 12:58:10.265062094,-3.6564395427703857
2025-04-07 12:58:10.280687094,-3.6852595806121826
2025-04-07 12:58:10.296312094,-3.7024316787719727
2025-04-07 12:58:10.311937094,-3.7075257301330566
2025-04-07 12:58:10.327562094,-3.6998751163482666
2025-04-07 12:58:10.343187094,-3.6786551475524902
2025-04-07 12:58:10.358812094,-3.643021821975708
2025-04-07 12:58:10.374437094,-3.592244863510132
2025-04-07 12:58:10.390062094,-3.5257339477539062
2025-04-07 12:58:10.405687094,-3.443127393722534
2025-04-07 12:58:10.421312094,-3.344571352005005
2025-04-07 12:58:10.436937094,-3.2309610843658447
2025-04-07 12:58:10.452562094,-3.1038713455200195
2025-04-07 12:58:10.468187094,-2.96527361869812
2025-04-07 12:58:10.483812094,-2.817347764968872
2025-04-07 12:58:10.499437094,-2.662496566772461
2025-04-07 12:58:10.515062094,-2.5034193992614746
2025-04-07 12:58:10.530687094,-2.3430373668670654
2025-04-07 12:58:10.546312094,-2.1841933727264404
2025-04-07 12:58:10.561937094,-2.028883934020996
2025-04-07 12:58:10.577562094,-1.876705288887024
2025-04-07 12:58:10.593187094,-1.723695993423462
2025-04-07 12:58:10.608812094,-1.5634422302246094
2025-04-07 12:58:10.624437094,-1.3897299766540527
2025-04-07 12:58:10.640062094,-1.1985280513763428
2025-04-07 12:58:10.655687094,-0.9887006282806396
2025-04-07 12:58:10.671312094,-0.7619774341583252
2025-04-07 12:58:10.686937094,-0.5224916934967041
2025-04-07 12:58:10.702562094,-0.2760307788848877
2025-04-07 12:58:10.718187094,-0.02916032075881958
2025-04-07 12:58:10.733812094,0.21162879467010498
2025-04-07 12:58:10.749437094,0.4406357407569885
2025-04-07 12:58:10.765062094,0.6534534096717834
2025-04-07 12:58:10.780687094,0.8472309112548828
2025-04-07 12:58:10.796312094,1.0207027196884155
2025-04-07 12:58:10.811937094,1.1740257740020752
2025-04-07 12:58:10.827562094,1.3084797859191895
2025-04-07 12:58:10.843187094,1.4260947704315186
2025-04-07 12:58:10.858812094,1.5292679071426392
2025-04-07 12:58:10.874437094,1.6204184293746948
2025-04-07 12:58:10.890062094,1.7017160654067993
2025-04-07 12:58:10.905687094,1.7749007940292358
2025-04-07 12:58:10.921312094,1.841198444366455
2025-04-07 12:58:10.936937094,1.901320457458496
2025-04-07 12:58:10.952562094,1.9555304050445557
2025-04-07 12:58:10.968187094,2.003754138946533
2025-04-07 12:58:10.983812094,2.045708417892456
2025-04-07 12:58:10.999437094,2.0810294151306152
2025-04-07 12:58:11.015062094,2.109381675720215
2025-04-07 12:58:11.030687094,2.130540370941162
2025-04-07 12:58:11.046312094,2.1444404125213623
2025-04-07 12:58:11.061937094,2.1511917114257812
2025-04-07 12:58:11.077562094,2.1510677337646484
2025-04-07 12:58:11.093187094,2.144474983215332
2025-04-07 12:58:11.108812094,2.1319098472595215
2025-04-07 12:58:11.124437094,2.1139135360717773
2025-04-07 12:58:11.140062094,2.0910277366638184
2025-04-07 12:58:11.155687094,2.0637595653533936
2025-04-07 12:58:11.171312094,2.032557964324951
2025-04-07 12:58:11.186937094,1.997802734375
2025-04-07 12:58:11.202562094,1.9598017930984497
2025-04-07 12:58:11.218187094,1.9187991619110107
2025-04-07 12:58:11.233812094,1.8749887943267822
2025-04-07 12:58:11.249437094,1.8285303115844727
2025-04-07 12:58:11.265062094,1.7795652151107788
2025-04-07 12:58:11.280687094,1.7282322645187378
2025-04-07 12:58:11.296312094,1.6746772527694702
2025-04-07 12:58:11.311937094,1.6190599203109741
2025-04-07 12:58:11.327562094,1.5615568161010742
2025-04-07 12:58:11.343187094,1.5023599863052368
2025-04-07 12:58:11.358812094,1.4416735172271729
2025-04-07 12:58:11.374437094,1.3797080516815186
2025-04-07 12:58:11.390062094,1.3166756629943848
2025-04-07 12:58:11.405687094,1.252784013748169
2025-04-07 12:58:11.421312094,1.1882307529449463
2025-04-07 12:58:11.436937094,1.1232008934020996
2025-04-07 12:58:11.452562094,1.0578649044036865
2025-04-07 12:58:11.468187094,0.9923782348632812
2025-04-07 12:58:11.483812094,0.9268833994865417
2025-04-07 12:58:11.499437094,0.8615113496780396
2025-04-07 12:58:11.515062094,0.796383261680603
2025-04-07 12:58:11.530687094,0.7316129803657532
2025-04-07 12:58:11.546312094,0.6673085689544678
2025-04-07 12:58:11.561937094,0.6035742163658142
2025-04-07 12:58:11.577562094,0.5405111908912659
2025-04-07 12:58:11.593187094,0.4781336486339569
2025-04-07 12:58:11.608812094,0.41610097885131836
2025-04-07 12:58:11.624437094,0.35358375310897827
2025-04-07 12:58:11.640062094,0.28972992300987244
2025-04-07 12:58:11.655687094,0.22441601753234863
2025-04-07 12:58:11.671312094,0.1584400236606598
2025-04-07 12:58:11.686937094,0.09292414784431458
2025-04-07 12:58:11.702562094,0.028512194752693176
2025-04-07 12:58:11.718187094,-0.03499382734298706
2025-04-07 12:58:11.733812094,-0.09844927489757538
2025-04-07 12:58:11.749437094,-0.16296012699604034
2025-04-07 12:58:11.765062094,-0.2295917570590973
2025-04-07 12:58:11.780687094,-0.2992420196533203
2025-04-07 12:58:11.796312094,-0.3725076913833618
2025-04-07 12:58:11.811937094,-0.4495145380496979
2025-04-07 12:58:11.827562094,-0.529867947101593
2025-04-07 12:58:11.843187094,-0.6127804517745972
2025-04-07 12:58:11.858812094,-0.6973080635070801
2025-04-07 12:58:11.874437094,-0.7826207280158997
2025-04-07 12:58:11.890062094,-0.8682125806808472
2025-04-07 12:58:11.905687094,-0.9539841413497925
2025-04-07 12:58:11.921312094,-1.0401980876922607
2025-04-07 12:58:11.936937094,-1.1272661685943604
2025-04-07 12:58:11.952562094,-1.2152527570724487
2025-04-07 12:58:11.968187094,-1.3030920028686523
2025-04-07 12:58:11.983812094,-1.3877930641174316
2025-04-07 12:58:11.999437094,-1.4640955924987793
2025-04-07 12:58:12.015062094,-1.5249056816101074
2025-04-07 12:58:12.030687094,-1.5623446702957153
2025-04-07 12:58:12.046312094,-1.5688540935516357
2025-04-07 12:58:12.061937094,-1.5381288528442383
2025-04-07 12:58:12.077562094,-1.46626615524292
2025-04-07 12:58:12.093187094,-1.3534024953842163
2025-04-07 12:58:12.108812094,-1.2052326202392578
2025-04-07 12:58:12.124437094,-1.033272385597229
2025-04-07 12:58:12.140062094,-0.8533137440681458
2025-04-07 12:58:12.155687094,-0.6826196908950806
2025-04-07 12:58:12.171312094,-0.5369281768798828
2025-04-07 12:58:12.186937094,-0.4280601143836975
2025-04-07 12:58:12.202562094,-0.3623884916305542
2025-04-07 12:58:12.218187094,-0.3402586877346039
2025-04-07 12:58:12.233812094,-0.3565616011619568
2025-04-07 12:58:12.249437094,-0.40242964029312134
2025-04-07 12:58:12.265062094,-0.46743059158325195
2025-04-07 12:58:12.280687094,-0.5413818359375
2025-04-07 12:58:12.296312094,-0.6153908967971802
2025-04-07 12:58:12.311937094,-0.6823290586471558
2025-04-07 12:58:12.327562094,-0.7369487285614014
2025-04-07 12:58:12.343187094,-0.7755893468856812
2025-04-07 12:58:12.358812094,-0.7955672144889832
2025-04-07 12:58:12.374437094,-0.7947352528572083
2025-04-07 12:58:12.390062094,-0.771685004234314
2025-04-07 12:58:12.405687094,-0.7265170812606812
2025-04-07 12:58:12.421312094,-0.6615302562713623
2025-04-07 12:58:12.436937094,-0.5812370181083679
2025-04-07 12:58:12.452562094,-0.4917270541191101
2025-04-07 12:58:12.468187094,-0.3997669816017151
2025-04-07 12:58:12.483812094,-0.31189048290252686
2025-04-07 12:58:12.499437094,-0.23352813720703125
2025-04-07 12:58:12.515062094,-0.16826948523521423
2025-04-07 12:58:12.530687094,-0.11748573184013367
2025-04-07 12:58:12.546312094,-0.08053994178771973
2025-04-07 12:58:12.561937094,-0.05556860566139221
2025-04-07 12:58:12.577562094,-0.04033529758453369
2025-04-07 12:58:12.593187094,-0.034466296434402466
2025-04-07 12:58:12.608812094,-0.045120030641555786
2025-04-07 12:58:12.624437094,-0.09003394842147827
2025-04-07 12:58:12.640062094,-0.19004017114639282
2025-04-07 12:58:12.655687094,-0.3567838966846466
2025-04-07 12:58:12.671312094,-0.58603435754776
2025-04-07 12:58:12.686937094,-0.8584084510803223
2025-04-07 12:58:12.702562094,-1.145467758178711
2025-04-07 12:58:12.718187094,-1.4193298816680908
2025-04-07 12:58:12.733812094,-1.6623728275299072
2025-04-07 12:58:12.749437094,-1.8732166290283203
2025-04-07 12:58:12.765062094,-2.067401170730591
2025-04-07 12:58:12.780687094,-2.272768020629883
2025-04-07 12:58:12.796312094,-2.521160840988159
2025-04-07 12:58:12.811937094,-2.843029499053955
2025-04-07 12:58:12.827562094,-3.2704362869262695
2025-04-07 12:58:12.843187094,-3.8400192260742188
2025-04-07 12:58:12.858812094,-4.58386754989624
2025-04-07 12:58:12.874437094,-5.512099742889404
2025-04-07 12:58:12.890062094,-6.598566055297852
2025-04-07 12:58:12.905687094,-7.775893211364746
2025-04-07 12:58:12.921312094,-8.942488670349121
2025-04-07 12:58:12.936937094,-9.979057312011719
2025-04-07 12:58:12.952562094,-10.767576217651367
2025-04-07 12:58:12.968187094,-11.207425117492676
2025-04-07 12:58:12.983812094,-11.227230072021484
2025-04-07 12:58:12.999437094,-10.793208122253418
2025-04-07 12:58:13.015062094,-9.914095878601074
2025-04-07 12:58:13.030687094,-8.64098834991455
2025-04-07 12:58:13.046312094,-7.06110954284668
2025-04-07 12:58:13.061937094,-5.285713195800781
2025-04-07 12:58:13.077562094,-3.4330568313598633
2025-04-07 12:58:13.093187094,-1.6090788841247559
2025-04-07 12:58:13.108812094,0.11174583435058594
2025-04-07 12:58:13.124437094,1.7035846710205078
2025-04-07 12:58:13.140062094,3.196180820465088
2025-04-07 12:58:13.155687094,4.656700134277344
2025-04-07 12:58:13.171312094,6.146807670593262
2025-04-07 12:58:13.186937094,7.68100643157959
2025-04-07 12:58:13.202562094,9.211823463439941
2025-04-07 12:58:13.218187094,10.643013954162598
2025-04-07 12:58:13.233812094,11.855253219604492
2025-04-07 12:58:13.249437094,12.730690002441406
2025-04-07 12:58:13.265062094,13.173404693603516
2025-04-07 12:58:13.280687094,13.128113746643066
2025-04-07 12:58:13.296312094,12.593996047973633
2025-04-07 12:58:13.311937094,11.62708854675293
2025-04-07 12:58:13.327562094,10.330839157104492
2025-04-07 12:58:13.343187094,8.840070724487305
2025-04-07 12:58:13.358812094,7.303252220153809
2025-04-07 12:58:13.374437094,5.867179870605469
2025-04-07 12:58:13.390062094,4.675342082977295
2025-04-07 12:58:13.405687094,3.884631633758545
2025-04-07 12:58:13.421312094,3.656846761703491
2025-04-07 12:58:13.436937094,4.081530570983887
2025-04-07 12:58:13.452562094,5.093133449554443
2025-04-07 12:58:13.468187094,6.477261066436768
2025-04-07 12:58:13.483812094,7.9509172439575195
2025-04-07 12:58:13.499437094,9.244361877441406
2025-04-07 12:58:13.515062094,10.152579307556152
2025-04-07 12:58:13.530687094,10.556600570678711
2025-04-07 12:58:13.546312094,10.422603607177734
2025-04-07 12:58:13.561937094,9.789531707763672
2025-04-07 12:58:13.577562094,8.752142906188965
2025-04-07 12:58:13.593187094,7.441163063049316
2025-04-07 12:58:13.608812094,6.002372741699219
2025-04-07 12:58:13.624437094,4.577520370483398
2025-04-07 12:58:13.640062094,3.2885451316833496
2025-04-07 12:58:13.655687094,2.225886583328247
2025-04-07 12:58:13.671312094,1.44172203540802
2025-04-07 12:58:13.686937094,0.9484939575195312
2025-04-07 12:58:13.702562094,0.7225426435470581
2025-04-07 12:58:13.718187094,0.7120155096054077
2025-04-07 12:58:13.733812094,0.8474621772766113
2025-04-07 12:58:13.749437094,1.0534273386001587
2025-04-07 12:58:13.765062094,1.2594966888427734
2025-04-07 12:58:13.780687094,1.409074306488037
2025-04-07 12:58:13.796312094,1.46449875831604
2025-04-07 12:58:13.811937094,1.4081392288208008
2025-04-07 12:58:13.827562094,1.240147352218628
2025-04-07 12:58:13.843187094,0.9744253158569336
2025-04-07 12:58:13.858812094,0.6344579458236694
2025-04-07 12:58:13.874437094,0.24942314624786377
2025-04-07 12:58:13.890062094,-0.1497713327407837
2025-04-07 12:58:13.905687094,-0.534301221370697
2025-04-07 12:58:13.921312094,-0.8805466890335083
2025-04-07 12:58:13.936937094,-1.1723251342773438
2025-04-07 12:58:13.952562094,-1.4020512104034424
2025-04-07 12:58:13.968187094,-1.5704939365386963
2025-04-07 12:58:13.983812094,-1.6850838661193848
2025-04-07 12:58:13.999437094,-1.7572929859161377
2025-04-07 12:58:14.015062094,-1.7999720573425293
2025-04-07 12:58:14.030687094,-1.8253297805786133
2025-04-07 12:58:14.046312094,-1.843611478805542
2025-04-07 12:58:14.061937094,-1.8622548580169678
2025-04-07 12:58:14.077562094,-1.8856068849563599
2025-04-07 12:58:14.093187094,-1.915277361869812
2025-04-07 12:58:14.108812094,-1.9508236646652222
2025-04-07 12:58:14.124437094,-1.9904696941375732
2025-04-07 12:58:14.140062094,-2.0318222045898438
2025-04-07 12:58:14.155687094,-2.0725343227386475
2025-04-07 12:58:14.171312094,-2.1107773780822754
2025-04-07 12:58:14.186937094,-2.145469903945923
2025-04-07 12:58:14.202562094,-2.1763134002685547
2025-04-07 12:58:14.218187094,-2.203697443008423
2025-04-07 12:58:14.233812094,-2.228518486022949
2025-04-07 12:58:14.249437094,-2.251969814300537
2025-04-07 12:58:14.265062094,-2.2753376960754395
2025-04-07 12:58:14.280687094,-2.2998175621032715
2025-04-07 12:58:14.296312094,-2.326359272003174
2025-04-07 12:58:14.311937094,-2.3555898666381836
2025-04-07 12:58:14.327562094,-2.3878369331359863
2025-04-07 12:58:14.343187094,-2.4232089519500732
2025-04-07 12:58:14.358812094,-2.4616246223449707
2025-04-07 12:58:14.374437094,-2.502767324447632
2025-04-07 12:58:14.390062094,-2.5460333824157715
2025-04-07 12:58:14.405687094,-2.5905299186706543
2025-04-07 12:58:14.421312094,-2.635128974914551
2025-04-07 12:58:14.436937094,-2.6785802841186523
2025-04-07 12:58:14.452562094,-2.7196450233459473
2025-04-07 12:58:14.468187094,-2.757218599319458
2025-04-07 12:58:14.483812094,-2.790426731109619
2025-04-07 12:58:14.499437094,-2.818694591522217
2025-04-07 12:58:14.515062094,-2.841771125793457
2025-04-07 12:58:14.530687094,-2.859694480895996
2025-04-07 12:58:14.546312094,-2.8727033138275146
2025-04-07 12:58:14.561937094,-2.8811326026916504
2025-04-07 12:58:14.577562094,-2.8853375911712646
2025-04-07 12:58:14.593187094,-2.885607957839966
2025-04-07 12:58:14.608812094,-2.8820347785949707
2025-04-07 12:58:14.624437094,-2.8743536472320557
2025-04-07 12:58:14.640062094,-2.861891746520996
2025-04-07 12:58:14.655687094,-2.8436954021453857
2025-04-07 12:58:14.671312094,-2.818782091140747
2025-04-07 12:58:14.686937094,-2.786491870880127
2025-04-07 12:58:14.702562094,-2.7469446659088135
2025-04-07 12:58:14.718187094,-2.7012767791748047
2025-04-07 12:58:14.733812094,-2.6512653827667236
2025-04-07 12:58:14.749437094,-2.598623275756836
2025-04-07 12:58:14.765062094,-2.544548273086548
2025-04-07 12:58:14.780687094,-2.4898033142089844
2025-04-07 12:58:14.796312094,-2.435236930847168
2025-04-07 12:58:14.811937094,-2.382179021835327
2025-04-07 12:58:14.827562094,-2.332247495651245
2025-04-07 12:58:14.843187094,-2.2867608070373535
2025-04-07 12:58:14.858812094,-2.246173620223999
2025-04-07 12:58:14.874437094,-2.209746837615967
2025-04-07 12:58:14.890062094,-2.1755270957946777
2025-04-07 12:58:14.905687094,-2.1406137943267822
2025-04-07 12:58:14.921312094,-2.1016831398010254
2025-04-07 12:58:14.936937094,-2.055668830871582
2025-04-07 12:58:14.952562094,-2.000324010848999
2025-04-07 12:58:14.968187094,-1.934482455253601
2025-04-07 12:58:14.983812094,-1.8580665588378906
2025-04-07 12:58:14.999437094,-1.771951675415039
2025-04-07 12:58:15.015062094,-1.6777509450912476
2025-04-07 12:58:15.030687094,-1.5775575637817383
2025-04-07 12:58:15.046312094,-1.4736775159835815
2025-04-07 12:58:15.061937094,-1.3683841228485107
2025-04-07 12:58:15.077562094,-1.2636934518814087
2025-04-07 12:58:15.093187094,-1.161180853843689
2025-04-07 12:58:15.108812094,-1.0618937015533447
2025-04-07 12:58:15.124437094,-0.9663617610931396
2025-04-07 12:58:15.140062094,-0.8746824860572815
2025-04-07 12:58:15.155687094,-0.7866462469100952
2025-04-07 12:58:15.171312094,-0.7018156051635742
2025-04-07 12:58:15.186937094,-0.6195135116577148
2025-04-07 12:58:15.202562094,-0.5385971665382385
2025-04-07 12:58:15.218187094,-0.4567202925682068
2025-04-07 12:58:15.233812094,-0.36923080682754517
2025-04-07 12:58:15.249437094,-0.26876258850097656
2025-04-07 12:58:15.265062094,-0.14673811197280884
2025-04-07 12:58:15.280687094,0.0033719539642333984
2025-04-07 12:58:15.296312094,0.18309783935546875
2025-04-07 12:58:15.311937094,0.38828861713409424
2025-04-07 12:58:15.327562094,0.6105358600616455
2025-04-07 12:58:15.343187094,0.8392163515090942
2025-04-07 12:58:15.358812094,1.0630748271942139
2025-04-07 12:58:15.374437094,1.271195411682129
2025-04-07 12:58:15.390062094,1.4537345170974731
2025-04-07 12:58:15.405687094,1.6028497219085693
2025-04-07 12:58:15.421312094,1.7138869762420654
2025-04-07 12:58:15.436937094,1.7861180305480957
2025-04-07 12:58:15.452562094,1.822452425956726
2025-04-07 12:58:15.468187094,1.8287622928619385
2025-04-07 12:58:15.483812094,1.8134890794754028
2025-04-07 12:58:15.499437094,1.7874451875686646
2025-04-07 12:58:15.515062094,1.7641993761062622
2025-04-07 12:58:15.530687094,1.7621276378631592
2025-04-07 12:58:15.546312094,1.8084735870361328
2025-04-07 12:58:15.561937094,1.9436790943145752
2025-04-07 12:58:15.577562094,2.2227776050567627
2025-04-07 12:58:15.593187094,2.710996389389038
2025-04-07 12:58:15.608812094,3.469938278198242
2025-04-07 12:58:15.624437094,4.53253173828125
2025-04-07 12:58:15.640062094,5.87545919418335
2025-04-07 12:58:15.655687094,7.404726028442383
2025-04-07 12:58:15.671312094,8.959248542785645
2025-04-07 12:58:15.686937094,10.326136589050293
2025-04-07 12:58:15.702562094,11.270235061645508
2025-04-07 12:58:15.718187094,11.582489013671875
2025-04-07 12:58:15.733812094,11.13076114654541
2025-04-07 12:58:15.749437094,9.890397071838379
2025-04-07 12:58:15.765062094,7.947770118713379
2025-04-07 12:58:15.780687094,5.481618881225586
2025-04-07 12:58:15.796312094,2.729959487915039
2025-04-07 12:58:15.811937094,-0.04920363426208496
2025-04-07 12:58:15.827562094,-2.6158981323242188
2025-04-07 12:58:15.843187094,-4.778958320617676
2025-04-07 12:58:15.858812094,-6.415651321411133
2025-04-07 12:58:15.874437094,-7.478358268737793
2025-04-07 12:58:15.890062094,-7.988975524902344
2025-04-07 12:58:15.905687094,-8.024080276489258
2025-04-07 12:58:15.921312094,-7.695141792297363
2025-04-07 12:58:15.936937094,-7.128017902374268
2025-04-07 12:58:15.952562094,-6.445068359375
2025-04-07 12:58:15.968187094,-5.751760482788086
2025-04-07 12:58:15.983812094,-5.128258228302002
2025-04-07 12:58:15.999437094,-4.625775337219238
2025-04-07 12:58:16.015062094,-4.267057418823242
2025-04-07 12:58:16.030687094,-4.049919128417969
2025-04-07 12:58:16.046312094,-3.952767848968506
2025-04-07 12:58:16.061937094,-3.9414868354797363
2025-04-07 12:58:16.077562094,-3.9769248962402344
2025-04-07 12:58:16.093187094,-4.021587371826172
2025-04-07 12:58:16.108812094,-4.044402122497559
2025-04-07 12:58:16.124437094,-4.023392200469971
2025-04-07 12:58:16.140062094,-3.9465479850769043
2025-04-07 12:58:16.155687094,-3.8112728595733643
2025-04-07 12:58:16.171312094,-3.6228461265563965
2025-04-07 12:58:16.186937094,-3.3922219276428223
2025-04-07 12:58:16.202562094,-3.133385419845581
2025-04-07 12:58:16.218187094,-2.860699415206909
2025-04-07 12:58:16.233812094,-2.5867772102355957
2025-04-07 12:58:16.249437094,-2.321193218231201
2025-04-07 12:58:16.265062094,-2.0700576305389404
2025-04-07 12:58:16.280687094,-1.8362879753112793
2025-04-07 12:58:16.296312094,-1.620309829711914
2025-04-07 12:58:16.311937094,-1.4208711385726929
2025-04-07 12:58:16.327562094,-1.2357228994369507
2025-04-07 12:58:16.343187094,-1.0620827674865723
2025-04-07 12:58:16.358812094,-0.8969414234161377
2025-04-07 12:58:16.374437094,-0.7373301982879639
2025-04-07 12:58:16.390062094,-0.5806803703308105
2025-04-07 12:58:16.405687094,-0.4252892732620239
2025-04-07 12:58:16.421312094,-0.2706691026687622
2025-04-07 12:58:16.436937094,-0.11748409271240234
2025-04-07 12:58:16.452562094,0.03294241428375244
2025-04-07 12:58:16.468187094,0.17929470539093018
2025-04-07 12:58:16.483812094,0.32085323333740234
2025-04-07 12:58:16.499437094,0.4578012228012085
2025-04-07 12:58:16.515062094,0.5910918712615967
2025-04-07 12:58:16.530687094,0.7219548225402832
2025-04-07 12:58:16.546312094,0.8513164520263672
2025-04-07 12:58:16.561937094,0.9793905019760132
2025-04-07 12:58:16.577562094,1.1055505275726318
2025-04-07 12:58:16.593187094,1.2284191846847534
2025-04-07 12:58:16.608812094,1.3461134433746338
2025-04-07 12:58:16.624437094,1.4566524028778076
2025-04-07 12:58:16.640062094,1.5584909915924072
2025-04-07 12:58:16.655687094,1.6511225700378418
2025-04-07 12:58:16.671312094,1.735753059387207
2025-04-07 12:58:16.686937094,1.8157908916473389
2025-04-07 12:58:16.702562094,1.8965373039245605
2025-04-07 12:58:16.718187094,1.9837931394577026
2025-04-07 12:58:16.733812094,2.081900119781494
2025-04-07 12:58:16.749437094,2.1920924186706543
2025-04-07 12:58:16.765062094,2.3117728233337402
2025-04-07 12:58:16.780687094,2.434805393218994
2025-04-07 12:58:16.796312094,2.55257511138916
2025-04-07 12:58:16.811937094,2.6555140018463135
2025-04-07 12:58:16.827562094,2.7348434925079346
2025-04-07 12:58:16.843187094,2.784245491027832
2025-04-07 12:58:16.858812094,2.8010101318359375
2025-04-07 12:58:16.874437094,2.786181926727295
2025-04-07 12:58:16.890062094,2.7437326908111572
2025-04-07 12:58:16.905687094,2.6794304847717285
2025-04-07 12:58:16.921312094,2.5999903678894043
2025-04-07 12:58:16.936937094,2.51249098777771
2025-04-07 12:58:16.952562094,2.4237582683563232
2025-04-07 12:58:16.968187094,2.3396499156951904
2025-04-07 12:58:16.983812094,2.2644405364990234
2025-04-07 12:58:16.999437094,2.2005186080932617
2025-04-07 12:58:17.015062094,2.148430347442627
2025-04-07 12:58:17.030687094,2.1071152687072754
2025-04-07 12:58:17.046312094,2.07419490814209
2025-04-07 12:58:17.061937094,2.046294927597046
2025-04-07 12:58:17.077562094,2.0194292068481445
2025-04-07 12:58:17.093187094,1.9894787073135376
2025-04-07 12:58:17.108812094,1.952749252319336
2025-04-07 12:58:17.124437094,1.9064667224884033
2025-04-07 12:58:17.140062094,1.8490488529205322
2025-04-07 12:58:17.155687094,1.7801356315612793
2025-04-07 12:58:17.171312094,1.700454831123352
2025-04-07 12:58:17.186937094,1.6115660667419434
2025-04-07 12:58:17.202562094,1.515539288520813
2025-04-07 12:58:17.218187094,1.4147093296051025
2025-04-07 12:58:17.233812094,1.3115695714950562
2025-04-07 12:58:17.249437094,1.2086749076843262
2025-04-07 12:58:17.265062094,1.108426570892334
2025-04-07 12:58:17.280687094,1.0127882957458496
2025-04-07 12:58:17.296312094,0.9230940937995911
2025-04-07 12:58:17.311937094,0.840079665184021
2025-04-07 12:58:17.327562094,0.7640992403030396
2025-04-07 12:58:17.343187094,0.6953573226928711
2025-04-07 12:58:17.358812094,0.6339937448501587
2025-04-07 12:58:17.374437094,0.5799891948699951
2025-04-07 12:58:17.390062094,0.5330206751823425
2025-04-07 12:58:17.405687094,0.4923960566520691
2025-04-07 12:58:17.421312094,0.4570447504520416
2025-04-07 12:58:17.436937094,0.42550599575042725
2025-04-07 12:58:17.452562094,0.39595121145248413
2025-04-07 12:58:17.468187094,0.3663140535354614
2025-04-07 12:58:17.483812094,0.3345390260219574
2025-04-07 12:58:17.499437094,0.2988933324813843
2025-04-07 12:58:17.515062094,0.25826382637023926
2025-04-07 12:58:17.530687094,0.2123469114303589
2025-04-07 12:58:17.546312094,0.1616484820842743
2025-04-07 12:58:17.561937094,0.10730907320976257
2025-04-07 12:58:17.577562094,0.05084208399057388
2025-04-07 12:58:17.593187094,-0.006159570068120956
2025-04-07 12:58:17.608812094,-0.062323685735464096
2025-04-07 12:58:17.624437094,-0.11677846312522888
2025-04-07 12:58:17.640062094,-0.16933290660381317
2025-04-07 12:58:17.655687094,-0.22043469548225403
2025-04-07 12:58:17.671312094,-0.2709192633628845
2025-04-07 12:58:17.686937094,-0.3217546343803406
2025-04-07 12:58:17.702562094,-0.3739141523838043
2025-04-07 12:58:17.718187094,-0.4282818138599396
2025-04-07 12:58:17.733812094,-0.4854862689971924
2025-04-07 12:58:17.749437094,-0.5457776784896851
2025-04-07 12:58:17.765062094,-0.6091009974479675
2025-04-07 12:58:17.780687094,-0.6752601265907288
2025-04-07 12:58:17.796312094,-0.7439509630203247
2025-04-07 12:58:17.811937094,-0.8146535158157349
2025-04-07 12:58:17.827562094,-0.8865678310394287
2025-04-07 12:58:17.843187094,-0.9587759971618652
2025-04-07 12:58:17.858812094,-1.030703067779541
2025-04-07 12:58:17.874437094,-1.1027708053588867
2025-04-07 12:58:17.890062094,-1.176967740058899
2025-04-07 12:58:17.905687094,-1.2570409774780273
2025-04-07 12:58:17.921312094,-1.3482015132904053
2025-04-07 12:58:17.936937094,-1.456512212753296
2025-04-07 12:58:17.952562094,-1.5880939960479736
2025-04-07 12:58:17.968187094,-1.7477095127105713
2025-04-07 12:58:17.983812094,-1.9361547231674194
2025-04-07 12:58:17.999437094,-2.1473162174224854
2025-04-07 12:58:18.015062094,-2.3670644760131836
2025-04-07 12:58:18.030687094,-2.575009822845459
2025-04-07 12:58:18.046312094,-2.7479984760284424
2025-04-07 12:58:18.061937094,-2.8638854026794434
2025-04-07 12:58:18.077562094,-2.9049742221832275
2025-04-07 12:58:18.093187094,-2.86069393157959
2025-04-07 12:58:18.108812094,-2.7290070056915283
2025-04-07 12:58:18.124437094,-2.516427516937256
2025-04-07 12:58:18.140062094,-2.236753225326538
2025-04-07 12:58:18.155687094,-1.9088499546051025
2025-04-07 12:58:18.171312094,-1.5546083450317383
2025-04-07 12:58:18.186937094,-1.1983296871185303
2025-04-07 12:58:18.202562094,-0.8668897151947021
2025-04-07 12:58:18.218187094,-0.5883930325508118
2025-04-07 12:58:18.233812094,-0.38811981678009033
2025-04-07 12:58:18.249437094,-0.28278112411499023
2025-04-07 12:58:18.265062094,-0.27537375688552856
2025-04-07 12:58:18.280687094,-0.3525473475456238
2025-04-07 12:58:18.296312094,-0.48500657081604004
2025-04-07 12:58:18.311937094,-0.631358802318573
2025-04-07 12:58:18.327562094,-0.7460334300994873
2025-04-07 12:58:18.343187094,-0.7897559404373169
2025-04-07 12:58:18.358812094,-0.7384852170944214
2025-04-07 12:58:18.374437094,-0.5872749090194702
2025-04-07 12:58:18.390062094,-0.3487292528152466
2025-04-07 12:58:18.405687094,-0.0483209490776062
2025-04-07 12:58:18.421312094,0.2811446487903595
2025-04-07 12:58:18.436937094,0.605250358581543
2025-04-07 12:58:18.452562094,0.8939028978347778
2025-04-07 12:58:18.468187094,1.1263316869735718
2025-04-07 12:58:18.483812094,1.2933040857315063
2025-04-07 12:58:18.499437094,1.396158218383789
2025-04-07 12:58:18.515062094,1.4439959526062012
2025-04-07 12:58:18.530687094,1.4505141973495483
2025-04-07 12:58:18.546312094,1.4310970306396484
2025-04-07 12:58:18.561937094,1.4002889394760132
2025-04-07 12:58:18.577562094,1.3698341846466064
2025-04-07 12:58:18.593187094,1.3475422859191895
2025-04-07 12:58:18.608812094,1.3370429277420044
2025-04-07 12:58:18.624437094,1.3382666110992432
2025-04-07 12:58:18.640062094,1.3484044075012207
2025-04-07 12:58:18.655687094,1.36307954788208
2025-04-07 12:58:18.671312094,1.3774774074554443
2025-04-07 12:58:18.686937094,1.3872289657592773
2025-04-07 12:58:18.702562094,1.388975977897644
2025-04-07 12:58:18.718187094,1.3806768655776978
2025-04-07 12:58:18.733812094,1.3617160320281982
2025-04-07 12:58:18.749437094,1.3327964544296265
2025-04-07 12:58:18.765062094,1.295612096786499
2025-04-07 12:58:18.780687094,1.252420425415039
2025-04-07 12:58:18.796312094,1.2056124210357666
2025-04-07 12:58:18.811937094,1.157245397567749
2025-04-07 12:58:18.827562094,1.1085999011993408
2025-04-07 12:58:18.843187094,1.0600407123565674
2025-04-07 12:58:18.858812094,1.011307954788208
2025-04-07 12:58:18.874437094,0.9619928598403931
2025-04-07 12:58:18.890062094,0.9119188785552979
2025-04-07 12:58:18.905687094,0.8613482117652893
2025-04-07 12:58:18.921312094,0.8109946250915527
2025-04-07 12:58:18.936937094,0.7618566155433655
2025-04-07 12:58:18.952562094,0.7149883508682251
2025-04-07 12:58:18.968187094,0.6713037490844727
2025-04-07 12:58:18.983812094,0.6314312219619751
2025-04-07 12:58:18.999437094,0.5956581234931946
2025-04-07 12:58:19.015062094,0.5639984607696533
2025-04-07 12:58:19.030687094,0.5363283157348633
2025-04-07 12:58:19.046312094,0.5124692916870117
2025-04-07 12:58:19.061937094,0.492148756980896
2025-04-07 12:58:19.077562094,0.4748603105545044
2025-04-07 12:58:19.093187094,0.4597075581550598
2025-04-07 12:58:19.108812094,0.4453158378601074
2025-04-07 12:58:19.124437094,0.42990565299987793
2025-04-07 12:58:19.140062094,0.4115101099014282
2025-04-07 12:58:19.155687094,0.38812488317489624
2025-04-07 12:58:19.171312094,0.357608437538147
2025-04-07 12:58:19.186937094,0.3174857497215271
2025-04-07 12:58:19.202562094,0.26503074169158936
2025-04-07 12:58:19.218187094,0.1977752447128296
2025-04-07 12:58:19.233812094,0.11419880390167236
2025-04-07 12:58:19.249437094,0.014257073402404785
2025-04-07 12:58:19.265062094,-0.10041570663452148
2025-04-07 12:58:19.280687094,-0.22663092613220215
2025-04-07 12:58:19.296312094,-0.36002063751220703
2025-04-07 12:58:19.311937094,-0.49556565284729004
2025-04-07 12:58:19.327562094,-0.6281805038452148
2025-04-07 12:58:19.343187094,-0.753259539604187
2025-04-07 12:58:19.358812094,-0.8670971393585205
2025-04-07 12:58:19.374437094,-0.9671486020088196
2025-04-07 12:58:19.390062094,-1.0521581172943115
2025-04-07 12:58:19.405687094,-1.1221542358398438
2025-04-07 12:58:19.421312094,-1.178260326385498
2025-04-07 12:58:19.436937094,-1.2222487926483154
2025-04-07 12:58:19.452562094,-1.2558234930038452
2025-04-07 12:58:19.468187094,-1.2798042297363281
2025-04-07 12:58:19.483812094,-1.2935659885406494
2025-04-07 12:58:19.499437094,-1.2950501441955566
2025-04-07 12:58:19.515062094,-1.2814687490463257
2025-04-07 12:58:19.530687094,-1.2505130767822266
2025-04-07 12:58:19.546312094,-1.2015743255615234
2025-04-07 12:58:19.561937094,-1.1364659070968628
2025-04-07 12:58:19.577562094,-1.059400200843811
2025-04-07 12:58:19.593187094,-0.9763334393501282
2025-04-07 12:58:19.608812094,-0.8939418792724609
2025-04-07 12:58:19.624437094,-0.8182007074356079
2025-04-07 12:58:19.640062094,-0.7527403831481934
2025-04-07 12:58:19.655687094,-0.6981486082077026
2025-04-07 12:58:19.671312094,-0.6532604694366455
2025-04-07 12:58:19.686937094,-0.6177812814712524
2025-04-07 12:58:19.702562094,-0.594345211982727
2025-04-07 12:58:19.718187094,-0.5884506702423096
2025-04-07 12:58:19.733812094,-0.606093168258667
2025-04-07 12:58:19.749437094,-0.6503400206565857
2025-04-07 12:58:19.765062094,-0.7187398672103882
2025-04-07 12:58:19.780687094,-0.8029974699020386
2025-04-07 12:58:19.796312094,-0.8910430669784546
2025-04-07 12:58:19.811937094,-0.9702979326248169
2025-04-07 12:58:19.827562094,-1.0304856300354004
2025-04-07 12:58:19.843187094,-1.0649467706680298
2025-04-07 12:58:19.858812094,-1.0704715251922607
2025-04-07 12:58:19.874437094,-1.0464251041412354
2025-04-07 12:58:19.890062094,-0.9941227436065674
2025-04-07 12:58:19.905687094,-0.9170485734939575
2025-04-07 12:58:19.921312094,-0.8217265009880066
2025-04-07 12:58:19.936937094,-0.7182725667953491
2025-04-07 12:58:19.952562094,-0.6196343898773193
2025-04-07 12:58:19.968187094,-0.5392672419548035
2025-04-07 12:58:19.983812094,-0.48788976669311523
2025-04-07 12:58:19.999437094,-0.4705956280231476
2025-04-07 12:58:20.015062094,-0.48562943935394287
2025-04-07 12:58:20.030687094,-0.525314450263977
2025-04-07 12:58:20.046312094,-0.5783951282501221
2025-04-07 12:58:20.061937094,-0.6324710845947266
2025-04-07 12:58:20.077562094,-0.6757602691650391
2025-04-07 12:58:20.093187094,-0.6983919143676758
2025-04-07 12:58:20.108812094,-0.6936283707618713
2025-04-07 12:58:20.124437094,-0.6588424444198608
2025-04-07 12:58:20.140062094,-0.5957529544830322
2025-04-07 12:58:20.155687094,-0.5097298622131348
2025-04-07 12:58:20.171312094,-0.4083762466907501
2025-04-07 12:58:20.186937094,-0.29975587129592896
2025-04-07 12:58:20.202562094,-0.19072389602661133
2025-04-07 12:58:20.218187094,-0.08588789403438568
2025-04-07 12:58:20.233812094,0.012433402240276337
2025-04-07 12:58:20.249437094,0.1033521294593811
2025-04-07 12:58:20.265062094,0.18624690175056458
2025-04-07 12:58:20.280687094,0.26005789637565613
2025-04-07 12:58:20.296312094,0.3234694004058838
2025-04-07 12:58:20.311937094,0.37572669982910156
2025-04-07 12:58:20.327562094,0.41734397411346436
2025-04-07 12:58:20.343187094,0.4500744938850403
2025-04-07 12:58:20.358812094,0.47612547874450684
2025-04-07 12:58:20.374437094,0.49716395139694214
2025-04-07 12:58:20.390062094,0.5136638283729553
2025-04-07 12:58:20.405687094,0.5246783494949341
2025-04-07 12:58:20.421312094,0.5277889966964722
2025-04-07 12:58:20.436937094,0.5190117955207825
2025-04-07 12:58:20.452562094,0.49265384674072266
2025-04-07 12:58:20.468187094,0.44132453203201294
2025-04-07 12:58:20.483812094,0.3564303517341614
2025-04-07 12:58:20.499437094,0.22954878211021423
2025-04-07 12:58:20.515062094,0.05485948920249939
2025-04-07 12:58:20.530687094,-0.16791704297065735
2025-04-07 12:58:20.546312094,-0.4312976002693176
2025-04-07 12:58:20.561937094,-0.7196281552314758
2025-04-07 12:58:20.577562094,-1.010765552520752
2025-04-07 12:58:20.593187094,-1.2792940139770508
2025-04-07 12:58:20.608812094,-1.500349998474121
2025-04-07 12:58:20.624437094,-1.6531400680541992
2025-04-07 12:58:20.640062094,-1.72340726852417
2025-04-07 12:58:20.655687094,-1.7045269012451172
2025-04-07 12:58:20.671312094,-1.5974986553192139
2025-04-07 12:58:20.686937094,-1.410384178161621
2025-04-07 12:58:20.702562094,-1.1575109958648682
2025-04-07 12:58:20.718187094,-0.8582959175109863
2025-04-07 12:58:20.733812094,-0.5353320837020874
2025-04-07 12:58:20.749437094,-0.21165680885314941
2025-04-07 12:58:20.765062094,0.09223771095275879
2025-04-07 12:58:20.780687094,0.36070168018341064
2025-04-07 12:58:20.796312094,0.5838789939880371
2025-04-07 12:58:20.811937094,0.7574375867843628
2025-04-07 12:58:20.827562094,0.8817254304885864
2025-04-07 12:58:20.843187094,0.9608160853385925
2025-04-07 12:58:20.858812094,1.001426100730896
2025-04-07 12:58:20.874437094,1.011645793914795
2025-04-07 12:58:20.890062094,0.9996325969696045
2025-04-07 12:58:20.905687094,0.9724549651145935
2025-04-07 12:58:20.921312094,0.935431957244873
2025-04-07 12:58:20.936937094,0.8923226594924927
2025-04-07 12:58:20.952562094,0.8460901975631714
2025-04-07 12:58:20.968187094,0.799578070640564
2025-04-07 12:58:20.983812094,0.7557564973831177
2025-04-07 12:58:20.999437094,0.7175350785255432
2025-04-07 12:58:21.015062094,0.6872889995574951
2025-04-07 12:58:21.030687094,0.6664637327194214
2025-04-07 12:58:21.046312094,0.6556186079978943
2025-04-07 12:58:21.061937094,0.6548323035240173
2025-04-07 12:58:21.077562094,0.6639816761016846
2025-04-07 12:58:21.093187094,0.6825610399246216
2025-04-07 12:58:21.108812094,0.7092658281326294
2025-04-07 12:58:21.124437094,0.7418289184570312
2025-04-07 12:58:21.140062094,0.777314305305481
2025-04-07 12:58:21.155687094,0.8126785159111023
2025-04-07 12:58:21.171312094,0.845305323600769
2025-04-07 12:58:21.186937094,0.8733478784561157
2025-04-07 12:58:21.202562094,0.8958387970924377
2025-04-07 12:58:21.218187094,0.9125878810882568
2025-04-07 12:58:21.233812094,0.9239410758018494
2025-04-07 12:58:21.249437094,0.9305058121681213
2025-04-07 12:58:21.265062094,0.932941734790802
2025-04-07 12:58:21.280687094,0.9318867921829224
2025-04-07 12:58:21.296312094,0.928009033203125
2025-04-07 12:58:21.311937094,0.9220887422561646
2025-04-07 12:58:21.327562094,0.9150848984718323
2025-04-07 12:58:21.343187094,0.9082125425338745
2025-04-07 12:58:21.358812094,0.9029731154441833
2025-04-07 12:58:21.374437094,0.9009917974472046
2025-04-07 12:58:21.390062094,0.9036241173744202
2025-04-07 12:58:21.405687094,0.9114503860473633
2025-04-07 12:58:21.421312094,0.9237829446792603
2025-04-07 12:58:21.436937094,0.9382864832878113
2025-04-07 12:58:21.452562094,0.950875997543335
2025-04-07 12:58:21.468187094,0.9560592770576477
2025-04-07 12:58:21.483812094,0.9476827383041382
2025-04-07 12:58:21.499437094,0.9198950529098511
2025-04-07 12:58:21.515062094,0.8682024478912354
2025-04-07 12:58:21.530687094,0.7904839515686035
2025-04-07 12:58:21.546312094,0.6876832246780396
2025-04-07 12:58:21.561937094,0.563894510269165
2025-04-07 12:58:21.577562094,0.42579901218414307
2025-04-07 12:58:21.593187094,0.2817859649658203
2025-04-07 12:58:21.608812094,0.1411704421043396
2025-04-07 12:58:21.624437094,0.013231992721557617
2025-04-07 12:58:21.640062094,-0.0944526195526123
2025-04-07 12:58:21.655687094,-0.1778309941291809
2025-04-07 12:58:21.671312094,-0.2372192144393921
2025-04-07 12:58:21.686937094,-0.2767980098724365
2025-04-07 12:58:21.702562094,-0.3032063841819763
2025-04-07 12:58:21.718187094,-0.3239275813102722
2025-04-07 12:58:21.733812094,-0.3460116386413574
2025-04-07 12:58:21.749437094,-0.3753197193145752
2025-04-07 12:58:21.765062094,-0.41616541147232056
2025-04-07 12:58:21.780687094,-0.4710918068885803
2025-04-07 12:58:21.796312094,-0.540591835975647
2025-04-07 12:58:21.811937094,-0.6227761507034302
2025-04-07 12:58:21.827562094,-0.7131779193878174
2025-04-07 12:58:21.843187094,-0.804917573928833
2025-04-07 12:58:21.858812094,-0.8893258571624756
2025-04-07 12:58:21.874437094,-0.9569369554519653
2025-04-07 12:58:21.890062094,-0.9986733198165894
2025-04-07 12:58:21.905687094,-1.007023811340332
2025-04-07 12:58:21.921312094,-0.9770282506942749
2025-04-07 12:58:21.936937094,-0.9069157838821411
2025-04-07 12:58:21.952562094,-0.7983119487762451
2025-04-07 12:58:21.968187094,-0.6559829711914062
2025-04-07 12:58:21.983812094,-0.48717761039733887
2025-04-07 12:58:21.999437094,-0.30070561170578003
2025-04-07 12:58:22.015062094,-0.10594016313552856
2025-04-07 12:58:22.030687094,0.08808326721191406
2025-04-07 12:58:22.046312094,0.2734147310256958
2025-04-07 12:58:22.061937094,0.4438020586967468
2025-04-07 12:58:22.077562094,0.5951105356216431
2025-04-07 12:58:22.093187094,0.7254669666290283
2025-04-07 12:58:22.108812094,0.8351258039474487
2025-04-07 12:58:22.124437094,0.9261035323143005
2025-04-07 12:58:22.140062094,1.0016459226608276
2025-04-07 12:58:22.155687094,1.065610647201538
2025-04-07 12:58:22.171312094,1.12186598777771
2025-04-07 12:58:22.186937094,1.1737911701202393
2025-04-07 12:58:22.202562094,1.2239184379577637
2025-04-07 12:58:22.218187094,1.2737361192703247
2025-04-07 12:58:22.233812094,1.323657512664795
2025-04-07 12:58:22.249437094,1.3731298446655273
2025-04-07 12:58:22.265062094,1.4208221435546875
2025-04-07 12:58:22.280687094,1.4648568630218506
2025-04-07 12:58:22.296312094,1.50306236743927
2025-04-07 12:58:22.311937094,1.5332001447677612
2025-04-07 12:58:22.327562094,1.5531330108642578
2025-04-07 12:58:22.343187094,1.5609561204910278
2025-04-07 12:58:22.358812094,1.5551177263259888
2025-04-07 12:58:22.374437094,1.5345395803451538
2025-04-07 12:58:22.390062094,1.4987307786941528
2025-04-07 12:58:22.405687094,1.4479014873504639
2025-04-07 12:58:22.421312094,1.3830654621124268
2025-04-07 12:58:22.436937094,1.3061169385910034
2025-04-07 12:58:22.452562094,1.219878911972046
2025-04-07 12:58:22.468187094,1.128147840499878
2025-04-07 12:58:22.483812094,1.0357625484466553
2025-04-07 12:58:22.499437094,0.9487181901931763
2025-04-07 12:58:22.515062094,0.8742947578430176
2025-04-07 12:58:22.530687094,0.8210468292236328
2025-04-07 12:58:22.546312094,0.7983410358428955
2025-04-07 12:58:22.561937094,0.8149996995925903
2025-04-07 12:58:22.577562094,0.8768229484558105
2025-04-07 12:58:22.593187094,0.983533501625061
2025-04-07 12:58:22.608812094,1.1268184185028076
2025-04-07 12:58:22.624437094,1.2916290760040283
2025-04-07 12:58:22.640062094,1.4605424404144287
2025-04-07 12:58:22.655687094,1.6178388595581055
2025-04-07 12:58:22.671312094,1.751708984375
2025-04-07 12:58:22.686937094,1.856950044631958
2025-04-07 12:58:22.702562094,1.940016269683838
2025-04-07 12:58:22.718187094,2.025723695755005
2025-04-07 12:58:22.733812094,2.163820266723633
2025-04-07 12:58:22.749437094,2.4292702674865723
2025-04-07 12:58:22.765062094,2.906297206878662
2025-04-07 12:58:22.780687094,3.6581029891967773
2025-04-07 12:58:22.796312094,4.700429916381836
2025-04-07 12:58:22.811937094,5.992536544799805
2025-04-07 12:58:22.827562094,7.443163871765137
2025-04-07 12:58:22.843187094,8.923625946044922
2025-04-07 12:58:22.858812094,10.284712791442871
2025-04-07 12:58:22.874437094,11.37721061706543
2025-04-07 12:58:22.890062094,12.074277877807617
2025-04-07 12:58:22.905687094,12.290861129760742
2025-04-07 12:58:22.921312094,11.994396209716797
2025-04-07 12:58:22.936937094,11.204509735107422
2025-04-07 12:58:22.952562094,9.984596252441406
2025-04-07 12:58:22.968187094,8.429183959960938
2025-04-07 12:58:22.983812094,6.649048805236816
2025-04-07 12:58:22.999437094,4.756128311157227
2025-04-07 12:58:23.015062094,2.8515796661376953
2025-04-07 12:58:23.030687094,1.018463134765625
2025-04-07 12:58:23.046312094,-0.6825780868530273
2025-04-07 12:58:23.061937094,-2.2159242630004883
2025-04-07 12:58:23.077562094,-3.5709996223449707
2025-04-07 12:58:23.093187094,-4.758458614349365
2025-04-07 12:58:23.108812094,-5.802849292755127
2025-04-07 12:58:23.124437094,-6.733916282653809
2025-04-07 12:58:23.140062094,-7.579059600830078
2025-04-07 12:58:23.155687094,-8.358574867248535
2025-04-07 12:58:23.171312094,-9.084223747253418
2025-04-07 12:58:23.186937094,-9.760247230529785
2025-04-07 12:58:23.202562094,-10.385210037231445
2025-04-07 12:58:23.218187094,-10.953761100769043
2025-04-07 12:58:23.233812094,-11.45822811126709
2025-04-07 12:58:23.249437094,-11.89022445678711
2025-04-07 12:58:23.265062094,-12.242300033569336
2025-04-07 12:58:23.280687094,-12.50934886932373
2025-04-07 12:58:23.296312094,-12.689594268798828
2025-04-07 12:58:23.311937094,-12.785126686096191
2025-04-07 12:58:23.327562094,-12.801902770996094
2025-04-07 12:58:23.343187094,-12.74911880493164
2025-04-07 12:58:23.358812094,-12.63801383972168
2025-04-07 12:58:23.374437094,-12.480403900146484
2025-04-07 12:58:23.390062094,-12.287318229675293
2025-04-07 12:58:23.405687094,-12.0679931640625
2025-04-07 12:58:23.421312094,-11.829195022583008
2025-04-07 12:58:23.436937094,-11.57490062713623
2025-04-07 12:58:23.452562094,-11.306831359863281
2025-04-07 12:58:23.468187094,-11.026283264160156
2025-04-07 12:58:23.483812094,-10.736980438232422
2025-04-07 12:58:23.499437094,-10.448356628417969
2025-04-07 12:58:23.515062094,-10.177471160888672
2025-04-07 12:58:23.530687094,-9.946127891540527
2025-04-07 12:58:23.546312094,-9.773093223571777
2025-04-07 12:58:23.561937094,-9.66677188873291
2025-04-07 12:58:23.577562094,-9.62336540222168
2025-04-07 12:58:23.593187094,-9.630675315856934
2025-04-07 12:58:23.608812094,-9.673603057861328
2025-04-07 12:58:23.624437094,-9.737038612365723
2025-04-07 12:58:23.640062094,-9.805177688598633
2025-04-07 12:58:23.655687094,-9.8595552444458
2025-04-07 12:58:23.671312094,-9.877630233764648
2025-04-07 12:58:23.686937094,-9.83174991607666
2025-04-07 12:58:23.702562094,-9.689260482788086
2025-04-07 12:58:23.718187094,-9.416424751281738
2025-04-07 12:58:23.733812094,-8.986113548278809
2025-04-07 12:58:23.749437094,-8.384987831115723
2025-04-07 12:58:23.765062094,-7.616337776184082
2025-04-07 12:58:23.780687094,-6.698473930358887
2025-04-07 12:58:23.796312094,-5.660830497741699
2025-04-07 12:58:23.811937094,-4.5394134521484375
2025-04-07 12:58:23.827562094,-3.372180938720703
2025-04-07 12:58:23.843187094,-2.1948795318603516
2025-04-07 12:58:23.858812094,-1.0382070541381836
2025-04-07 12:58:23.874437094,0.0733642578125
2025-04-07 12:58:23.890062094,1.1219959259033203
2025-04-07 12:58:23.905687094,2.0974698066711426
2025-04-07 12:58:23.921312094,2.998723030090332
2025-04-07 12:58:23.936937094,3.8342323303222656
2025-04-07 12:58:23.952562094,4.619779109954834
2025-04-07 12:58:23.968187094,5.373758316040039
2025-04-07 12:58:23.983812094,6.1118879318237305
2025-04-07 12:58:23.999437094,6.843860626220703
2025-04-07 12:58:24.015062094,7.572866439819336
2025-04-07 12:58:24.030687094,8.296854972839355
2025-04-07 12:58:24.046312094,9.010232925415039
2025-04-07 12:58:24.061937094,9.70501708984375
2025-04-07 12:58:24.077562094,10.370850563049316
2025-04-07 12:58:24.093187094,10.99427604675293
2025-04-07 12:58:24.108812094,11.558152198791504
2025-04-07 12:58:24.124437094,12.042336463928223
2025-04-07 12:58:24.140062094,12.426680564880371
2025-04-07 12:58:24.155687094,12.695845603942871
2025-04-07 12:58:24.171312094,12.843934059143066
2025-04-07 12:58:24.186937094,12.876607894897461
2025-04-07 12:58:24.202562094,12.809269905090332
2025-04-07 12:58:24.218187094,12.662075996398926
2025-04-07 12:58:24.233812094,12.454423904418945
2025-04-07 12:58:24.249437094,12.201009750366211
2025-04-07 12:58:24.265062094,11.910280227661133
2025-04-07 12:58:24.280687094,11.585420608520508
2025-04-07 12:58:24.296312094,11.227234840393066
2025-04-07 12:58:24.311937094,10.837465286254883
2025-04-07 12:58:24.327562094,10.421163558959961
2025-04-07 12:58:24.343187094,9.987407684326172
2025-04-07 12:58:24.358812094,9.548137664794922
2025-04-07 12:58:24.374437094,9.115487098693848
2025-04-07 12:58:24.390062094,8.698771476745605
2025-04-07 12:58:24.405687094,8.302522659301758
2025-04-07 12:58:24.421312094,7.92645263671875
2025-04-07 12:58:24.436937094,7.567107200622559
2025-04-07 12:58:24.452562094,7.220006465911865
2025-04-07 12:58:24.468187094,6.881130218505859
2025-04-07 12:58:24.483812094,6.547540187835693
2025-04-07 12:58:24.499437094,6.217569351196289
2025-04-07 12:58:24.515062094,5.890904426574707
2025-04-07 12:58:24.530687094,5.5685648918151855
2025-04-07 12:58:24.546312094,5.252615928649902
2025-04-07 12:58:24.561937094,4.945586681365967
2025-04-07 12:58:24.577562094,4.649884223937988
2025-04-07 12:58:24.593187094,4.367467403411865
2025-04-07 12:58:24.608812094,4.099623203277588
2025-04-07 12:58:24.624437094,3.8465843200683594
2025-04-07 12:58:24.640062094,3.6070804595947266
2025-04-07 12:58:24.655687094,3.3782567977905273
2025-04-07 12:58:24.671312094,3.156251907348633
2025-04-07 12:58:24.686937094,2.937192678451538
2025-04-07 12:58:24.702562094,2.7180099487304688
2025-04-07 12:58:24.718187094,2.4967312812805176
2025-04-07 12:58:24.733812094,2.2723565101623535
2025-04-07 12:58:24.749437094,2.0445761680603027
2025-04-07 12:58:24.765062094,1.813546061515808
2025-04-07 12:58:24.780687094,1.579850196838379
2025-04-07 12:58:24.796312094,1.3446264266967773
2025-04-07 12:58:24.811937094,1.1096305847167969
2025-04-07 12:58:24.827562094,0.8770134449005127
2025-04-07 12:58:24.843187094,0.648836612701416
2025-04-07 12:58:24.858812094,0.42657044529914856
2025-04-07 12:58:24.874437094,0.21081988513469696
2025-04-07 12:58:24.890062094,0.0013971179723739624
2025-04-07 12:58:24.905687094,-0.20232291519641876
2025-04-07 12:58:24.921312094,-0.4009832739830017
2025-04-07 12:58:24.936937094,-0.5949606895446777
2025-04-07 12:58:24.952562094,-0.7842726707458496
2025-04-07 12:58:24.968187094,-0.9686433672904968
2025-04-07 12:58:24.983812094,-1.1476399898529053
2025-04-07 12:58:24.999437094,-1.3207793235778809
2025-04-07 12:58:25.015062094,-1.4875839948654175
2025-04-07 12:58:25.030687094,-1.6476274728775024
2025-04-07 12:58:25.046312094,-1.8005906343460083
2025-04-07 12:58:25.061937094,-1.9463255405426025
2025-04-07 12:58:25.077562094,-2.0848844051361084
2025-04-07 12:58:25.093187094,-2.2164788246154785
2025-04-07 12:58:25.108812094,-2.3414058685302734
2025-04-07 12:58:25.124437094,-2.460003137588501
2025-04-07 12:58:25.140062094,-2.572662591934204
2025-04-07 12:58:25.155687094,-2.679863691329956
2025-04-07 12:58:25.171312094,-2.7821593284606934
2025-04-07 12:58:25.186937094,-2.8800761699676514
2025-04-07 12:58:25.202562094,-2.973985433578491
2025-04-07 12:58:25.218187094,-3.0640153884887695
2025-04-07 12:58:25.233812094,-3.1500020027160645
2025-04-07 12:58:25.249437094,-3.2314534187316895
2025-04-07 12:58:25.265062094,-3.3075857162475586
2025-04-07 12:58:25.280687094,-3.377499580383301
2025-04-07 12:58:25.296312094,-3.440429210662842
2025-04-07 12:58:25.311937094,-3.495910406112671
2025-04-07 12:58:25.327562094,-3.543799877166748
2025-04-07 12:58:25.343187094,-3.5841851234436035
2025-04-07 12:58:25.358812094,-3.6172690391540527
2025-04-07 12:58:25.374437094,-3.6433043479919434
2025-04-07 12:58:25.390062094,-3.662579298019409
2025-04-07 12:58:25.405687094,-3.675394058227539
2025-04-07 12:58:25.421312094,-3.682011604309082
2025-04-07 12:58:25.436937094,-3.682649612426758
2025-04-07 12:58:25.452562094,-3.6775436401367188
2025-04-07 12:58:25.468187094,-3.6670355796813965
2025-04-07 12:58:25.483812094,-3.651595115661621
2025-04-07 12:58:25.499437094,-3.6317379474639893
2025-04-07 12:58:25.515062094,-3.6079013347625732
2025-04-07 12:58:25.530687094,-3.5803632736206055
2025-04-07 12:58:25.546312094,-3.5492515563964844
2025-04-07 12:58:25.561937094,-3.5146169662475586
2025-04-07 12:58:25.577562094,-3.476494789123535
2025-04-07 12:58:25.593187094,-3.434903621673584
2025-04-07 12:58:25.608812094,-3.3897955417633057
2025-04-07 12:58:25.624437094,-3.341036081314087
2025-04-07 12:58:25.640062094,-3.288496971130371
2025-04-07 12:58:25.655687094,-3.2322418689727783
2025-04-07 12:58:25.671312094,-3.1726572513580322
2025-04-07 12:58:25.686937094,-3.110382080078125
2025-04-07 12:58:25.702562094,-3.0460751056671143
2025-04-07 12:58:25.718187094,-2.9801790714263916
2025-04-07 12:58:25.733812094,-2.9127914905548096
2025-04-07 12:58:25.749437094,-2.8436503410339355
2025-04-07 12:58:25.765062094,-2.7721991539001465
2025-04-07 12:58:25.780687094,-2.6977040767669678
2025-04-07 12:58:25.796312094,-2.6193621158599854
2025-04-07 12:58:25.811937094,-2.5363378524780273
2025-04-07 12:58:25.827562094,-2.447763442993164
2025-04-07 12:58:25.843187094,-2.352813243865967
2025-04-07 12:58:25.858812094,-2.250899076461792
2025-04-07 12:58:25.874437094,-2.141916513442993
2025-04-07 12:58:25.890062094,-2.0264408588409424
2025-04-07 12:58:25.905687094,-1.9058122634887695
2025-04-07 12:58:25.921312094,-1.7820806503295898
2025-04-07 12:58:25.936937094,-1.657828688621521
2025-04-07 12:58:25.952562094,-1.5359084606170654
2025-04-07 12:58:25.968187094,-1.4191172122955322
2025-04-07 12:58:25.983812094,-1.3098210096359253
2025-04-07 12:58:25.999437094,-1.2095966339111328
2025-04-07 12:58:26.015062094,-1.1190032958984375
2025-04-07 12:58:26.030687094,-1.0375115871429443
2025-04-07 12:58:26.046312094,-0.9635452628135681
2025-04-07 12:58:26.061937094,-0.8946162462234497
2025-04-07 12:58:26.077562094,-0.8275933265686035
2025-04-07 12:58:26.093187094,-0.7591126561164856
2025-04-07 12:58:26.108812094,-0.6860830187797546
2025-04-07 12:58:26.124437094,-0.6062279343605042
2025-04-07 12:58:26.140062094,-0.5185548067092896
2025-04-07 12:58:26.155687094,-0.4235904812812805
2025-04-07 12:58:26.171312094,-0.3232921361923218
2025-04-07 12:58:26.186937094,-0.22066032886505127
2025-04-07 12:58:26.202562094,-0.11914804577827454
2025-04-07 12:58:26.218187094,-0.021990999579429626
2025-04-07 12:58:26.233812094,0.06837507337331772
2025-04-07 12:58:26.249437094,0.1506301611661911
2025-04-07 12:58:26.265062094,0.2245374172925949
2025-04-07 12:58:26.280687094,0.29068973660469055
2025-04-07 12:58:26.296312094,0.3502594232559204
2025-04-07 12:58:26.311937094,0.40477362275123596
2025-04-07 12:58:26.327562094,0.45579081773757935
2025-04-07 12:58:26.343187094,0.5045216083526611
2025-04-07 12:58:26.358812094,0.5515444874763489
2025-04-07 12:58:26.374437094,0.5966658592224121
2025-04-07 12:58:26.390062094,0.6390050649642944
2025-04-07 12:58:26.405687094,0.677473783493042
2025-04-07 12:58:26.421312094,0.7115330696105957
2025-04-07 12:58:26.436937094,0.7417042851448059
2025-04-07 12:58:26.452562094,0.769515872001648
2025-04-07 12:58:26.468187094,0.7971674799919128
2025-04-07 12:58:26.483812094,0.8272686004638672
2025-04-07 12:58:26.499437094,0.8625411987304688
2025-04-07 12:58:26.515062094,0.9051374197006226
2025-04-07 12:58:26.530687094,0.9555759429931641
2025-04-07 12:58:26.546312094,1.0118520259857178
2025-04-07 12:58:26.561937094,1.0693230628967285
2025-04-07 12:58:26.577562094,1.1212373971939087
2025-04-07 12:58:26.593187094,1.1595665216445923
2025-04-07 12:58:26.608812094,1.1765481233596802
2025-04-07 12:58:26.624437094,1.1668132543563843
2025-04-07 12:58:26.640062094,1.1290278434753418
2025-04-07 12:58:26.655687094,1.066725254058838
2025-04-07 12:58:26.671312094,0.9882522821426392
2025-04-07 12:58:26.686937094,0.9053636789321899
2025-04-07 12:58:26.702562094,0.8307927250862122
2025-04-07 12:58:26.718187094,0.7758395671844482
2025-04-07 12:58:26.733812094,0.7486686706542969
2025-04-07 12:58:26.749437094,0.7533180713653564
2025-04-07 12:58:26.765062094,0.7891832590103149
2025-04-07 12:58:26.780687094,0.8511567115783691
2025-04-07 12:58:26.796312094,0.930854320526123
2025-04-07 12:58:26.811937094,1.018747091293335
2025-04-07 12:58:26.827562094,1.106323003768921
2025-04-07 12:58:26.843187094,1.1874892711639404
2025-04-07 12:58:26.858812094,1.2589669227600098
2025-04-07 12:58:26.874437094,1.3198962211608887
2025-04-07 12:58:26.890062094,1.371100902557373
2025-04-07 12:58:26.905687094,1.4144093990325928
2025-04-07 12:58:26.921312094,1.4521795511245728
2025-04-07 12:58:26.936937094,1.4869353771209717
2025-04-07 12:58:26.952562094,1.5209949016571045
2025-04-07 12:58:26.968187094,1.5561254024505615
2025-04-07 12:58:26.983812094,1.5933473110198975
2025-04-07 12:58:26.999437094,1.6329131126403809
2025-04-07 12:58:27.015062094,1.6744071245193481
2025-04-07 12:58:27.030687094,1.7168965339660645
2025-04-07 12:58:27.046312094,1.7591137886047363
2025-04-07 12:58:27.061937094,1.799665093421936
2025-04-07 12:58:27.077562094,1.8372188806533813
2025-04-07 12:58:27.093187094,1.8705974817276
2025-04-07 12:58:27.108812094,1.8987681865692139
2025-04-07 12:58:27.124437094,1.9208204746246338
2025-04-07 12:58:27.140062094,1.9360089302062988
2025-04-07 12:58:27.155687094,1.9438461065292358
2025-04-07 12:58:27.171312094,1.9441382884979248
2025-04-07 12:58:27.186937094,1.936882495880127
2025-04-07 12:58:27.202562094,1.9220761060714722
2025-04-07 12:58:27.218187094,1.8995616436004639
2025-04-07 12:58:27.233812094,1.8689690828323364
2025-04-07 12:58:27.249437094,1.82976496219635
2025-04-07 12:58:27.265062094,1.7814167737960815
2025-04-07 12:58:27.280687094,1.723625659942627
2025-04-07 12:58:27.296312094,1.656519889831543
2025-04-07 12:58:27.311937094,1.5807266235351562
2025-04-07 12:58:27.327562094,1.4973430633544922
2025-04-07 12:58:27.343187094,1.4078819751739502
2025-04-07 12:58:27.358812094,1.3142011165618896
2025-04-07 12:58:27.374437094,1.2183358669281006
2025-04-07 12:58:27.390062094,1.1221816539764404
2025-04-07 12:58:27.405687094,1.0271284580230713
2025-04-07 12:58:27.421312094,0.9338815808296204
2025-04-07 12:58:27.436937094,0.8426102995872498
2025-04-07 12:58:27.452562094,0.7532770037651062
2025-04-07 12:58:27.468187094,0.6658347845077515
2025-04-07 12:58:27.483812094,0.5801902413368225
2025-04-07 12:58:27.499437094,0.49612200260162354
2025-04-07 12:58:27.515062094,0.4133402109146118
2025-04-07 12:58:27.530687094,0.3316306471824646
2025-04-07 12:58:27.546312094,0.2509060502052307
2025-04-07 12:58:27.561937094,0.17112845182418823
2025-04-07 12:58:27.577562094,0.09225612878799438
2025-04-07 12:58:27.593187094,0.01431429386138916
2025-04-07 12:58:27.608812094,-0.0625753402709961
2025-04-07 12:58:27.624437094,-0.13842231035232544
2025-04-07 12:58:27.640062094,-0.21371686458587646
2025-04-07 12:58:27.655687094,-0.2895073890686035
2025-04-07 12:58:27.671312094,-0.36707478761672974
2025-04-07 12:58:27.686937094,-0.44745945930480957
2025-04-07 12:58:27.702562094,-0.5311396718025208
2025-04-07 12:58:27.718187094,-0.6179956197738647
2025-04-07 12:58:27.733812094,-0.7074844241142273
2025-04-07 12:58:27.749437094,-0.7987832427024841
2025-04-07 12:58:27.765062094,-0.890737771987915
2025-04-07 12:58:27.780687094,-0.98175048828125
2025-04-07 12:58:27.796312094,-1.0698721408843994
2025-04-07 12:58:27.811937094,-1.1531094312667847
2025-04-07 12:58:27.827562094,-1.2296745777130127
2025-04-07 12:58:27.843187094,-1.2980248928070068
2025-04-07 12:58:27.858812094,-1.356907606124878
2025-04-07 12:58:27.874437094,-1.4056135416030884
2025-04-07 12:58:27.890062094,-1.4442105293273926
2025-04-07 12:58:27.905687094,-1.4734303951263428
2025-04-07 12:58:27.921312094,-1.4942944049835205
2025-04-07 12:58:27.936937094,-1.5078455209732056
2025-04-07 12:58:27.952562094,-1.5151610374450684
2025-04-07 12:58:27.968187094,-1.5174765586853027
2025-04-07 12:58:27.983812094,-1.516148328781128
2025-04-07 12:58:27.999437094,-1.5123977661132812
2025-04-07 12:58:28.015062094,-1.507051944732666
2025-04-07 12:58:28.030687094,-1.5004855394363403
2025-04-07 12:58:28.046312094,-1.4927443265914917
2025-04-07 12:58:28.061937094,-1.4837000370025635
2025-04-07 12:58:28.077562094,-1.4731717109680176
2025-04-07 12:58:28.093187094,-1.4610038995742798
2025-04-07 12:58:28.108812094,-1.4470798969268799
2025-04-07 12:58:28.124437094,-1.431268572807312
2025-04-07 12:58:28.140062094,-1.4133543968200684
2025-04-07 12:58:28.155687094,-1.3929873704910278
2025-04-07 12:58:28.171312094,-1.3696609735488892
2025-04-07 12:58:28.186937094,-1.3427444696426392
2025-04-07 12:58:28.202562094,-1.311614990234375
2025-04-07 12:58:28.218187094,-1.27588951587677
2025-04-07 12:58:28.233812094,-1.2356548309326172
2025-04-07 12:58:28.249437094,-1.1915613412857056
2025-04-07 12:58:28.265062094,-1.1447265148162842
2025-04-07 12:58:28.280687094,-1.0965203046798706
2025-04-07 12:58:28.296312094,-1.0483529567718506
2025-04-07 12:58:28.311937094,-1.0015276670455933
2025-04-07 12:58:28.327562094,-0.9571342468261719
2025-04-07 12:58:28.343187094,-0.9159253835678101
2025-04-07 12:58:28.358812094,-0.8781705498695374
2025-04-07 12:58:28.374437094,-0.8435691595077515
2025-04-07 12:58:28.390062094,-0.8112853169441223
2025-04-07 12:58:28.405687094,-0.7800930142402649
2025-04-07 12:58:28.421312094,-0.7485942840576172
2025-04-07 12:58:28.436937094,-0.7154393196105957
2025-04-07 12:58:28.452562094,-0.6794630885124207
2025-04-07 12:58:28.468187094,-0.6397377848625183
2025-04-07 12:58:28.483812094,-0.5956094861030579
2025-04-07 12:58:28.499437094,-0.5467572808265686
2025-04-07 12:58:28.515062094,-0.49325644969940186
2025-04-07 12:58:28.530687094,-0.4356110394001007
2025-04-07 12:58:28.546312094,-0.3747249245643616
2025-04-07 12:58:28.561937094,-0.31179600954055786
2025-04-07 12:58:28.577562094,-0.2481498420238495
2025-04-07 12:58:28.593187094,-0.18500524759292603
2025-04-07 12:58:28.608812094,-0.12312549352645874
2025-04-07 12:58:28.624437094,-0.06247055530548096
2025-04-07 12:58:28.640062094,-0.0021166205406188965
2025-04-07 12:58:28.655687094,0.05948689579963684
2025-04-07 12:58:28.671312094,0.12407061457633972
2025-04-07 12:58:28.686937094,0.19305840134620667
2025-04-07 12:58:28.702562094,0.26715952157974243
2025-04-07 12:58:28.718187094,0.3461461067199707
2025-04-07 12:58:28.733812094,0.4288581609725952
2025-04-07 12:58:28.749437094,0.513391375541687
2025-04-07 12:58:28.765062094,0.5973881483078003
2025-04-07 12:58:28.780687094,0.6783671975135803
2025-04-07 12:58:28.796312094,0.7540305852890015
2025-04-07 12:58:28.811937094,0.8224791884422302
2025-04-07 12:58:28.827562094,0.8823131322860718
2025-04-07 12:58:28.843187094,0.9326649904251099
2025-04-07 12:58:28.858812094,0.9732129573822021
2025-04-07 12:58:28.874437094,1.0041643381118774
2025-04-07 12:58:28.890062094,1.0261833667755127
2025-04-07 12:58:28.905687094,1.0402624607086182
2025-04-07 12:58:28.921312094,1.0475598573684692
2025-04-07 12:58:28.936937094,1.0492500066757202
2025-04-07 12:58:28.952562094,1.0464158058166504
2025-04-07 12:58:28.968187094,1.0399866104125977
2025-04-07 12:58:28.983812094,1.030703067779541
2025-04-07 12:58:28.999437094,1.0190978050231934
2025-04-07 12:58:29.015062094,1.0054905414581299
2025-04-07 12:58:29.030687094,0.9900132417678833
2025-04-07 12:58:29.046312094,0.9726755619049072
2025-04-07 12:58:29.061937094,0.953433096408844
2025-04-07 12:58:29.077562094,0.9321994781494141
2025-04-07 12:58:29.093187094,0.9088050127029419
2025-04-07 12:58:29.108812094,0.8829923868179321
2025-04-07 12:58:29.124437094,0.8545190095901489
2025-04-07 12:58:29.140062094,0.8233180046081543
2025-04-07 12:58:29.155687094,0.7896140813827515
2025-04-07 12:58:29.171312094,0.7539279460906982
2025-04-07 12:58:29.186937094,0.7169544696807861
2025-04-07 12:58:29.202562094,0.6793501377105713
2025-04-07 12:58:29.218187094,0.64152592420578
2025-04-07 12:58:29.233812094,0.6035729646682739
2025-04-07 12:58:29.249437094,0.5653825998306274
2025-04-07 12:58:29.265062094,0.5268679857254028
2025-04-07 12:58:29.280687094,0.4881179928779602
2025-04-07 12:58:29.296312094,0.4494204521179199
2025-04-07 12:58:29.311937094,0.41125208139419556
2025-04-07 12:58:29.327562094,0.37434151768684387
2025-04-07 12:58:29.343187094,0.3397656977176666
2025-04-07 12:58:29.358812094,0.30894362926483154
2025-04-07 12:58:29.374437094,0.28353843092918396
2025-04-07 12:58:29.390062094,0.2654353678226471
2025-04-07 12:58:29.405687094,0.25675997138023376
2025-04-07 12:58:29.421312094,0.25962114334106445
2025-04-07 12:58:29.436937094,0.2754600942134857
2025-04-07 12:58:29.452562094,0.30436912178993225
2025-04-07 12:58:29.468187094,0.34489917755126953
2025-04-07 12:58:29.483812094,0.3945080041885376
2025-04-07 12:58:29.499437094,0.450283944606781
2025-04-07 12:58:29.515062094,0.5094680786132812
2025-04-07 12:58:29.530687094,0.5696338415145874
2025-04-07 12:58:29.546312094,0.6286909580230713
2025-04-07 12:58:29.561937094,0.6849160194396973
2025-04-07 12:58:29.577562094,0.7370260953903198
2025-04-07 12:58:29.593187094,0.7839196920394897
2025-04-07 12:58:29.608812094,0.8237727880477905
2025-04-07 12:58:29.624437094,0.8531544208526611
2025-04-07 12:58:29.640062094,0.86725914478302
2025-04-07 12:58:29.655687094,0.8611887693405151
2025-04-07 12:58:29.671312094,0.8311629295349121
2025-04-07 12:58:29.686937094,0.7749931812286377
2025-04-07 12:58:29.702562094,0.6921252012252808
2025-04-07 12:58:29.718187094,0.5837358236312866
2025-04-07 12:58:29.733812094,0.45289039611816406
2025-04-07 12:58:29.749437094,0.30445563793182373
2025-04-07 12:58:29.765062094,0.1446058750152588
2025-04-07 12:58:29.780687094,-0.019957363605499268
2025-04-07 12:58:29.796312094,-0.1827983856201172
2025-04-07 12:58:29.811937094,-0.3383448123931885
2025-04-07 12:58:29.827562094,-0.4822603464126587
2025-04-07 12:58:29.843187094,-0.6116452217102051
2025-04-07 12:58:29.858812094,-0.7250931859016418
2025-04-07 12:58:29.874437094,-0.8225869536399841
2025-04-07 12:58:29.890062094,-0.9052227735519409
2025-04-07 12:58:29.905687094,-0.974807858467102
2025-04-07 12:58:29.921312094,-1.033440113067627
2025-04-07 12:58:29.936937094,-1.0831879377365112
2025-04-07 12:58:29.952562094,-1.125918984413147
2025-04-07 12:58:29.968187094,-1.1632343530654907
2025-04-07 12:58:29.983812094,-1.1964333057403564
2025-04-07 12:58:29.999437094,-1.2264894247055054
2025-04-07 12:58:30.015062094,-1.2540446519851685
2025-04-07 12:58:30.030687094,-1.279416561126709
2025-04-07 12:58:30.046312094,-1.3026200532913208
2025-04-07 12:58:30.061937094,-1.3233979940414429
2025-04-07 12:58:30.077562094,-1.341261386871338
2025-04-07 12:58:30.093187094,-1.3555256128311157
2025-04-07 12:58:30.108812094,-1.365333080291748
2025-04-07 12:58:30.124437094,-1.3697102069854736
2025-04-07 12:58:30.140062094,-1.3677127361297607
2025-04-07 12:58:30.155687094,-1.3586102724075317
2025-04-07 12:58:30.171312094,-1.3420265913009644
2025-04-07 12:58:30.186937094,-1.3180102109909058
2025-04-07 12:58:30.202562094,-1.287022352218628
2025-04-07 12:58:30.218187094,-1.2498230934143066
2025-04-07 12:58:30.233812094,-1.207305908203125
2025-04-07 12:58:30.249437094,-1.160373330116272
2025-04-07 12:58:30.265062094,-1.1098859310150146
2025-04-07 12:58:30.280687094,-1.0566617250442505
2025-04-07 12:58:30.296312094,-1.0014803409576416
2025-04-07 12:58:30.311937094,-0.9450622200965881
2025-04-07 12:58:30.327562094,-0.8880336880683899
2025-04-07 12:58:30.343187094,-0.8309034705162048
2025-04-07 12:58:30.358812094,-0.7740535140037537
2025-04-07 12:58:30.374437094,-0.7177340984344482
2025-04-07 12:58:30.390062094,-0.6620725393295288
2025-04-07 12:58:30.405687094,-0.6071128845214844
2025-04-07 12:58:30.421312094,-0.552859902381897
2025-04-07 12:58:30.436937094,-0.4992924630641937
2025-04-07 12:58:30.452562094,-0.44636356830596924
2025-04-07 12:58:30.468187094,-0.39402493834495544
2025-04-07 12:58:30.483812094,-0.3422621786594391
2025-04-07 12:58:30.499437094,-0.29111549258232117
2025-04-07 12:58:30.515062094,-0.2406989336013794
2025-04-07 12:58:30.530687094,-0.1912083625793457
2025-04-07 12:58:30.546312094,-0.14288648962974548
2025-04-07 12:58:30.561937094,-0.09596127271652222
2025-04-07 12:58:30.577562094,-0.050609707832336426
2025-04-07 12:58:30.593187094,-0.006960928440093994
2025-04-07 12:58:30.608812094,0.03488287329673767
2025-04-07 12:58:30.624437094,0.07483060657978058
2025-04-07 12:58:30.640062094,0.1128094494342804
2025-04-07 12:58:30.655687094,0.14879482984542847
2025-04-07 12:58:30.671312094,0.18283510208129883
2025-04-07 12:58:30.686937094,0.2150457501411438
2025-04-07 12:58:30.702562094,0.24557821452617645
2025-04-07 12:58:30.718187094,0.27458879351615906
2025-04-07 12:58:30.733812094,0.3022337555885315
2025-04-07 12:58:30.749437094,0.32868465781211853
2025-04-07 12:58:30.765062094,0.3541301488876343
2025-04-07 12:58:30.780687094,0.37875717878341675
2025-04-07 12:58:30.796312094,0.40272241830825806
2025-04-07 12:58:30.811937094,0.42607367038726807
2025-04-07 12:58:30.827562094,0.44856369495391846
2025-04-07 12:58:30.843187094,0.4693317413330078
2025-04-07 12:58:30.858812094,0.4863447844982147
2025-04-07 12:58:30.874437094,0.4953770935535431
2025-04-07 12:58:30.890062094,0.48858001828193665
2025-04-07 12:58:30.905687094,0.4534185826778412
2025-04-07 12:58:30.921312094,0.3733598291873932
2025-04-07 12:58:30.936937094,0.23111394047737122
2025-04-07 12:58:30.952562094,0.013307690620422363
2025-04-07 12:58:30.968187094,-0.2857362627983093
2025-04-07 12:58:30.983812094,-0.6623259782791138
2025-04-07 12:58:30.999437094,-1.103333830833435
2025-04-07 12:58:31.015062094,-1.5870661735534668
2025-04-07 12:58:31.030687094,-2.084994077682495
2025-04-07 12:58:31.046312094,-2.5642924308776855
2025-04-07 12:58:31.061937094,-2.9908552169799805
2025-04-07 12:58:31.077562094,-3.332469940185547
2025-04-07 12:58:31.093187094,-3.5619893074035645
2025-04-07 12:58:31.108812094,-3.6602044105529785
2025-04-07 12:58:31.124437094,-3.6178994178771973
2025-04-07 12:58:31.140062094,-3.436716079711914
2025-04-07 12:58:31.155687094,-3.1287574768066406
2025-04-07 12:58:31.171312094,-2.715043544769287
2025-04-07 12:58:31.186937094,-2.2230019569396973
2025-04-07 12:58:31.202562094,-1.6833076477050781
2025-04-07 12:58:31.218187094,-1.126621961593628
2025-04-07 12:58:31.233812094,-0.5808265209197998
2025-04-07 12:58:31.249437094,-0.06909322738647461
2025-04-07 12:58:31.265062094,0.39115285873413086
2025-04-07 12:58:31.280687094,0.7884633541107178
2025-04-07 12:58:31.296312094,1.1169520616531372
2025-04-07 12:58:31.311937094,1.375451922416687
2025-04-07 12:58:31.327562094,1.5664540529251099
2025-04-07 12:58:31.343187094,1.6949915885925293
2025-04-07 12:58:31.358812094,1.767760157585144
2025-04-07 12:58:31.374437094,1.7929012775421143
2025-04-07 12:58:31.390062094,1.7805347442626953
2025-04-07 12:58:31.405687094,1.7435420751571655
2025-04-07 12:58:31.421312094,1.6978834867477417
2025-04-07 12:58:31.436937094,1.6618621349334717
2025-04-07 12:58:31.452562094,1.6541200876235962
2025-04-07 12:58:31.468187094,1.6907371282577515
2025-04-07 12:58:31.483812094,1.782317876815796
2025-04-07 12:58:31.499437094,1.9320545196533203
2025-04-07 12:58:31.515062094,2.135319709777832
2025-04-07 12:58:31.530687094,2.3807010650634766
2025-04-07 12:58:31.546312094,2.651991128921509
2025-04-07 12:58:31.561937094,2.9305481910705566
2025-04-07 12:58:31.577562094,3.1975181102752686
2025-04-07 12:58:31.593187094,3.4356558322906494
2025-04-07 12:58:31.608812094,3.6307106018066406
2025-04-07 12:58:31.624437094,3.7723817825317383
2025-04-07 12:58:31.640062094,3.85483980178833
2025-04-07 12:58:31.655687094,3.876772403717041
2025-04-07 12:58:31.671312094,3.840789794921875
2025-04-07 12:58:31.686937094,3.752174139022827
2025-04-07 12:58:31.702562094,3.617825508117676
2025-04-07 12:58:31.718187094,3.4463629722595215
2025-04-07 12:58:31.733812094,3.2488372325897217
2025-04-07 12:58:31.749437094,3.0386626720428467
2025-04-07 12:58:31.765062094,2.8303322792053223
2025-04-07 12:58:31.780687094,2.6375086307525635
2025-04-07 12:58:31.796312094,2.4712133407592773
2025-04-07 12:58:31.811937094,2.338554859161377
2025-04-07 12:58:31.827562094,2.2421648502349854
2025-04-07 12:58:31.843187094,2.1803393363952637
2025-04-07 12:58:31.858812094,2.1477599143981934
2025-04-07 12:58:31.874437094,2.136584997177124
2025-04-07 12:58:31.890062094,2.1376729011535645
2025-04-07 12:58:31.905687094,2.1417555809020996
2025-04-07 12:58:31.921312094,2.140443801879883
2025-04-07 12:58:31.936937094,2.12697172164917
2025-04-07 12:58:31.952562094,2.096614360809326
2025-04-07 12:58:31.968187094,2.046793222427368
2025-04-07 12:58:31.983812094,1.9769312143325806
2025-04-07 12:58:31.999437094,1.8881245851516724
2025-04-07 12:58:32.015062094,1.7826995849609375
2025-04-07 12:58:32.030687094,1.6637359857559204
2025-04-07 12:58:32.046312094,1.5346262454986572
2025-04-07 12:58:32.061937094,1.3987176418304443
2025-04-07 12:58:32.077562094,1.259033203125
2025-04-07 12:58:32.093187094,1.1180682182312012
2025-04-07 12:58:32.108812094,0.9776723384857178
2025-04-07 12:58:32.124437094,0.839033842086792
2025-04-07 12:58:32.140062094,0.7027714252471924
2025-04-07 12:58:32.155687094,0.5690898895263672
2025-04-07 12:58:32.171312094,0.43795156478881836
2025-04-07 12:58:32.186937094,0.3092467784881592
2025-04-07 12:58:32.202562094,0.1829465627670288
2025-04-07 12:58:32.218187094,0.05922555923461914
2025-04-07 12:58:32.233812094,-0.06143546104431152
2025-04-07 12:58:32.249437094,-0.1781604290008545
2025-04-07 12:58:32.265062094,-0.2896019220352173
2025-04-07 12:58:32.280687094,-0.39390456676483154
2025-04-07 12:58:32.296312094,-0.4887479543685913
2025-04-07 12:58:32.311937094,-0.5714223384857178
2025-04-07 12:58:32.327562094,-0.6388304233551025
2025-04-07 12:58:32.343187094,-0.687564492225647
2025-04-07 12:58:32.358812094,-0.7145451307296753
2025-04-07 12:58:32.374437094,-0.7184183597564697
2025-04-07 12:58:32.390062094,-0.7011772394180298
2025-04-07 12:58:32.405687094,-0.6691243648529053
2025-04-07 12:58:32.421312094,-0.6324870586395264
2025-04-07 12:58:32.436937094,-0.603430986404419
2025-04-07 12:58:32.452562094,-0.5926206111907959
2025-04-07 12:58:32.468187094,-0.6047847270965576
2025-04-07 12:58:32.483812094,-0.6334660053253174
2025-04-07 12:58:32.499437094,-0.6526515483856201
2025-04-07 12:58:32.515062094,-0.6000099182128906
2025-04-07 12:58:32.530687094,-0.3709449768066406
2025-04-07 12:58:32.546312094,0.13051676750183105
2025-04-07 12:58:32.561937094,0.9057774543762207
2025-04-07 12:58:32.577562094,1.832399845123291
2025-04-07 12:58:32.593187094,2.713747501373291
2025-04-07 12:58:32.608812094,3.3545455932617188
2025-04-07 12:58:32.624437094,3.6243038177490234
2025-04-07 12:58:32.640062094,3.493772029876709
2025-04-07 12:58:32.655687094,3.038325309753418
2025-04-07 12:58:32.671312094,2.4095544815063477
2025-04-07 12:58:32.686937094,1.7821016311645508
2025-04-07 12:58:32.702562094,1.2958283424377441
2025-04-07 12:58:32.718187094,1.021639347076416
2025-04-07 12:58:32.733812094,0.9630060195922852
2025-04-07 12:58:32.749437094,1.080761432647705
2025-04-07 12:58:32.765062094,1.319808006286621
2025-04-07 12:58:32.780687094,1.622138500213623
2025-04-07 12:58:32.796312094,1.9236135482788086
2025-04-07 12:58:32.811937094,2.1431398391723633
2025-04-07 12:58:32.827562094,2.174863815307617
2025-04-07 12:58:32.843187094,1.8915624618530273
2025-04-07 12:58:32.858812094,1.1649646759033203
2025-04-07 12:58:32.874437094,-0.09943294525146484
2025-04-07 12:58:32.890062094,-1.9273428916931152
2025-04-07 12:58:32.905687094,-4.256290435791016
2025-04-07 12:58:32.921312094,-6.938285827636719
2025-04-07 12:58:32.936937094,-9.761956214904785
2025-04-07 12:58:32.952562094,-12.486701011657715
2025-04-07 12:58:32.968187094,-14.880094528198242
2025-04-07 12:58:32.983812094,-16.75112533569336
2025-04-07 12:58:32.999437094,-17.973880767822266
2025-04-07 12:58:33.015062094,-18.498538970947266
2025-04-07 12:58:33.030687094,-18.34957504272461
2025-04-07 12:58:33.046312094,-17.613727569580078
2025-04-07 12:58:33.061937094,-16.421335220336914
2025-04-07 12:58:33.077562094,-14.92467212677002
2025-04-07 12:58:33.093187094,-13.276796340942383
2025-04-07 12:58:33.108812094,-11.613551139831543
2025-04-07 12:58:33.124437094,-10.039855003356934
2025-04-07 12:58:33.140062094,-8.620670318603516
2025-04-07 12:58:33.155687094,-7.378525257110596
2025-04-07 12:58:33.171312094,-6.300500392913818
2025-04-07 12:58:33.186937094,-5.3539886474609375
2025-04-07 12:58:33.202562094,-4.504700183868408
2025-04-07 12:58:33.218187094,-3.7288453578948975
2025-04-07 12:58:33.233812094,-3.015476703643799
2025-04-07 12:58:33.249437094,-2.3602776527404785
2025-04-07 12:58:33.265062094,-1.7561581134796143
2025-04-07 12:58:33.280687094,-1.1881263256072998
2025-04-07 12:58:33.296312094,-0.6375120878219604
2025-04-07 12:58:33.311937094,-0.09317076206207275
2025-04-07 12:58:33.327562094,0.43932080268859863
2025-04-07 12:58:33.343187094,0.9384763240814209
2025-04-07 12:58:33.358812094,1.376847267150879
2025-04-07 12:58:33.374437094,1.7321746349334717
2025-04-07 12:58:33.390062094,1.9942409992218018
2025-04-07 12:58:33.405687094,2.167074203491211
2025-04-07 12:58:33.421312094,2.266885280609131
2025-04-07 12:58:33.436937094,2.31662654876709
2025-04-07 12:58:33.452562094,2.340360164642334
2025-04-07 12:58:33.468187094,2.3598179817199707
2025-04-07 12:58:33.483812094,2.3922767639160156
2025-04-07 12:58:33.499437094,2.448540687561035
2025-04-07 12:58:33.515062094,2.531785011291504
2025-04-07 12:58:33.530687094,2.6383213996887207
2025-04-07 12:58:33.546312094,2.7599711418151855
2025-04-07 12:58:33.561937094,2.886981964111328
2025-04-07 12:58:33.577562094,3.0106630325317383
2025-04-07 12:58:33.593187094,3.125199317932129
2025-04-07 12:58:33.608812094,3.2283434867858887
2025-04-07 12:58:33.624437094,3.3210341930389404
2025-04-07 12:58:33.640062094,3.406230926513672
2025-04-07 12:58:33.655687094,3.487419843673706
2025-04-07 12:58:33.671312094,3.567430257797241
2025-04-07 12:58:33.686937094,3.6481170654296875
2025-04-07 12:58:33.702562094,3.730794906616211
2025-04-07 12:58:33.718187094,3.816821575164795
2025-04-07 12:58:33.733812094,3.90791654586792
2025-04-07 12:58:33.749437094,4.006122589111328
2025-04-07 12:58:33.765062094,4.1135430335998535
2025-04-07 12:58:33.780687094,4.232014179229736
2025-04-07 12:58:33.796312094,4.3624491691589355
2025-04-07 12:58:33.811937094,4.503387928009033
2025-04-07 12:58:33.827562094,4.649409294128418
2025-04-07 12:58:33.843187094,4.79111385345459
2025-04-07 12:58:33.858812094,4.916987419128418
2025-04-07 12:58:33.874437094,5.015719413757324
2025-04-07 12:58:33.890062094,5.078285217285156
2025-04-07 12:58:33.905687094,5.0996503829956055
2025-04-07 12:58:33.921312094,5.07936954498291
2025-04-07 12:58:33.936937094,5.020895957946777
2025-04-07 12:58:33.952562094,4.930293083190918
2025-04-07 12:58:33.968187094,4.81497049331665
2025-04-07 12:58:33.983812094,4.682586669921875
2025-04-07 12:58:33.999437094,4.540119171142578
2025-04-07 12:58:34.015062094,4.3932952880859375
2025-04-07 12:58:34.030687094,4.246491432189941
2025-04-07 12:58:34.046312094,4.102738380432129
2025-04-07 12:58:34.061937094,3.963451385498047
2025-04-07 12:58:34.077562094,3.8281402587890625
2025-04-07 12:58:34.093187094,3.694660186767578
2025-04-07 12:58:34.108812094,3.5601089000701904
2025-04-07 12:58:34.124437094,3.4219276905059814
2025-04-07 12:58:34.140062094,3.278592348098755
2025-04-07 12:58:34.155687094,3.1296768188476562
2025-04-07 12:58:34.171312094,2.9755876064300537
2025-04-07 12:58:34.186937094,2.8173022270202637
2025-04-07 12:58:34.202562094,2.656205892562866
2025-04-07 12:58:34.218187094,2.494025230407715
2025-04-07 12:58:34.233812094,2.3327672481536865
2025-04-07 12:58:34.249437094,2.1745309829711914
2025-04-07 12:58:34.265062094,2.0212059020996094
2025-04-07 12:58:34.280687094,1.8741543292999268
2025-04-07 12:58:34.296312094,1.7339674234390259
2025-04-07 12:58:34.311937094,1.600393295288086
2025-04-07 12:58:34.327562094,1.4724953174591064
2025-04-07 12:58:34.343187094,1.3489394187927246
2025-04-07 12:58:34.358812094,1.2282828092575073
2025-04-07 12:58:34.374437094,1.1092509031295776
2025-04-07 12:58:34.390062094,0.9910218119621277
2025-04-07 12:58:34.405687094,0.8734281063079834
2025-04-07 12:58:34.421312094,0.7569155097007751
2025-04-07 12:58:34.436937094,0.6422089338302612
2025-04-07 12:58:34.452562094,0.5297879576683044
2025-04-07 12:58:34.468187094,0.41938263177871704
2025-04-07 12:58:34.483812094,0.30982714891433716
2025-04-07 12:58:34.499437094,0.19941234588623047
2025-04-07 12:58:34.515062094,0.08651039004325867
2025-04-07 12:58:34.530687094,-0.029600441455841064
2025-04-07 12:58:34.546312094,-0.1478981375694275
2025-04-07 12:58:34.561937094,-0.26549994945526123
2025-04-07 12:58:34.577562094,-0.37849360704421997
2025-04-07 12:58:34.593187094,-0.48313236236572266
2025-04-07 12:58:34.608812094,-0.5769078731536865
2025-04-07 12:58:34.624437094,-0.6591346859931946
2025-04-07 12:58:34.640062094,-0.7308405041694641
2025-04-07 12:58:34.655687094,-0.794298529624939
2025-04-07 12:58:34.671312094,-0.8526502251625061
2025-04-07 12:58:34.686937094,-0.9096214175224304
2025-04-07 12:58:34.702562094,-0.9690558910369873
2025-04-07 12:58:34.718187094,-1.0342328548431396
2025-04-07 12:58:34.733812094,-1.1072285175323486
2025-04-07 12:58:34.749437094,-1.1885254383087158
2025-04-07 12:58:34.765062094,-1.2768808603286743
2025-04-07 12:58:34.780687094,-1.3694779872894287
2025-04-07 12:58:34.796312094,-1.4625520706176758
2025-04-07 12:58:34.811937094,-1.5524682998657227
2025-04-07 12:58:34.827562094,-1.6366331577301025
2025-04-07 12:58:34.843187094,-1.7136476039886475
2025-04-07 12:58:34.858812094,-1.7827880382537842
2025-04-07 12:58:34.874437094,-1.8433541059494019
2025-04-07 12:58:34.890062094,-1.894500732421875
2025-04-07 12:58:34.905687094,-1.9357900619506836
2025-04-07 12:58:34.921312094,-1.967940330505371
2025-04-07 12:58:34.936937094,-1.9930146932601929
2025-04-07 12:58:34.952562094,-2.013861894607544
2025-04-07 12:58:34.968187094,-2.033250093460083
2025-04-07 12:58:34.983812094,-2.053253173828125
2025-04-07 12:58:34.999437094,-2.075077533721924
2025-04-07 12:58:35.015062094,-2.0991268157958984
2025-04-07 12:58:35.030687094,-2.1251018047332764
2025-04-07 12:58:35.046312094,-2.1521058082580566
2025-04-07 12:58:35.061937094,-2.178751230239868
2025-04-07 12:58:35.077562094,-2.203239917755127
2025-04-07 12:58:35.093187094,-2.223478317260742
2025-04-07 12:58:35.108812094,-2.2373108863830566
2025-04-07 12:58:35.124437094,-2.242811441421509
2025-04-07 12:58:35.140062094,-2.2384562492370605
2025-04-07 12:58:35.155687094,-2.2231407165527344
2025-04-07 12:58:35.171312094,-2.196096181869507
2025-04-07 12:58:35.186937094,-2.15675950050354
2025-04-07 12:58:35.202562094,-2.104809045791626
2025-04-07 12:58:35.218187094,-2.040665864944458
2025-04-07 12:58:35.233812094,-1.9662425518035889
2025-04-07 12:58:35.249437094,-1.8851964473724365
2025-04-07 12:58:35.265062094,-1.8022606372833252
2025-04-07 12:58:35.280687094,-1.7219414710998535
2025-04-07 12:58:35.296312094,-1.6473402976989746
2025-04-07 12:58:35.311937094,-1.5797498226165771
2025-04-07 12:58:35.327562094,-1.5190343856811523
2025-04-07 12:58:35.343187094,-1.4642988443374634
2025-04-07 12:58:35.358812094,-1.4145053625106812
2025-04-07 12:58:35.374437094,-1.3689037561416626
2025-04-07 12:58:35.390062094,-1.3271480798721313
2025-04-07 12:58:35.405687094,-1.2891390323638916
2025-04-07 12:58:35.421312094,-1.2547494173049927
2025-04-07 12:58:35.436937094,-1.2235227823257446
2025-04-07 12:58:35.452562094,-1.1943531036376953
2025-04-07 12:58:35.468187094,-1.1651757955551147
2025-04-07 12:58:35.483812094,-1.1329896450042725
2025-04-07 12:58:35.499437094,-1.094541072845459
2025-04-07 12:58:35.515062094,-1.0475114583969116
2025-04-07 12:58:35.530687094,-0.9915921688079834
2025-04-07 12:58:35.546312094,-0.9287254810333252
2025-04-07 12:58:35.561937094,-0.8622023463249207
2025-04-07 12:58:35.577562094,-0.7951788902282715
2025-04-07 12:58:35.593187094,-0.7296567559242249
2025-04-07 12:58:35.608812094,-0.6663554310798645
2025-04-07 12:58:35.624437094,-0.6050297617912292
2025-04-07 12:58:35.640062094,-0.5447782278060913
2025-04-07 12:58:35.655687094,-0.48428723216056824
2025-04-07 12:58:35.671312094,-0.4220762550830841
2025-04-07 12:58:35.686937094,-0.35677748918533325
2025-04-07 12:58:35.702562094,-0.28747308254241943
2025-04-07 12:58:35.718187094,-0.21408845484256744
2025-04-07 12:58:35.733812094,-0.1376531571149826
2025-04-07 12:58:35.749437094,-0.06013813614845276
2025-04-07 12:58:35.765062094,0.016072586178779602
2025-04-07 12:58:35.780687094,0.0887763500213623
2025-04-07 12:58:35.796312094,0.15649005770683289
2025-04-07 12:58:35.811937094,0.21887198090553284
2025-04-07 12:58:35.827562094,0.27694952487945557
2025-04-07 12:58:35.843187094,0.33314886689186096
2025-04-07 12:58:35.858812094,0.39133068919181824
2025-04-07 12:58:35.874437094,0.45709240436553955
2025-04-07 12:58:35.890062094,0.5375466346740723
2025-04-07 12:58:35.905687094,0.6391571760177612
2025-04-07 12:58:35.921312094,0.7643734216690063
2025-04-07 12:58:35.936937094,0.9098153114318848
2025-04-07 12:58:35.952562094,1.0671249628067017
2025-04-07 12:58:35.968187094,1.2247215509414673
2025-04-07 12:58:35.983812094,1.368384599685669
2025-04-07 12:58:35.999437094,1.4812307357788086
2025-04-07 12:58:36.015062094,1.5455725193023682
2025-04-07 12:58:36.030687094,1.5473570823669434
2025-04-07 12:58:36.046312094,1.4809980392456055
2025-04-07 12:58:36.061937094,1.3518303632736206
2025-04-07 12:58:36.077562094,1.1751949787139893
2025-04-07 12:58:36.093187094,0.973312497138977
2025-04-07 12:58:36.108812094,0.7709962725639343
2025-04-07 12:58:36.124437094,0.5909821391105652
2025-04-07 12:58:36.140062094,0.4514757990837097
2025-04-07 12:58:36.155687094,0.3669801652431488
2025-04-07 12:58:36.171312094,0.3484676480293274
2025-04-07 12:58:36.186937094,0.39944833517074585
2025-04-07 12:58:36.202562094,0.5106631517410278
2025-04-07 12:58:36.218187094,0.6591324806213379
2025-04-07 12:58:36.233812094,0.8147610425949097
2025-04-07 12:58:36.249437094,0.9550623893737793
2025-04-07 12:58:36.265062094,1.0843569040298462
2025-04-07 12:58:36.280687094,1.244329571723938
2025-04-07 12:58:36.296312094,1.5043692588806152
2025-04-07 12:58:36.311937094,1.9390515089035034
2025-04-07 12:58:36.327562094,2.607388496398926
2025-04-07 12:58:36.343187094,3.5358951091766357
2025-04-07 12:58:36.358812094,4.700608730316162
2025-04-07 12:58:36.374437094,6.012369155883789
2025-04-07 12:58:36.390062094,7.320004463195801
2025-04-07 12:58:36.405687094,8.437777519226074
2025-04-07 12:58:36.421312094,9.18603801727295
2025-04-07 12:58:36.436937094,9.43055534362793
2025-04-07 12:58:36.452562094,9.110065460205078
2025-04-07 12:58:36.468187094,8.24492359161377
2025-04-07 12:58:36.483812094,6.9274396896362305
2025-04-07 12:58:36.499437094,5.300652980804443
2025-04-07 12:58:36.515062094,3.5314674377441406
2025-04-07 12:58:36.530687094,1.7831401824951172
2025-04-07 12:58:36.546312094,0.19260287284851074
2025-04-07 12:58:36.561937094,-1.1438419818878174
2025-04-07 12:58:36.577562094,-2.1758344173431396
2025-04-07 12:58:36.593187094,-2.89618182182312
2025-04-07 12:58:36.608812094,-3.3323569297790527
2025-04-07 12:58:36.624437094,-3.536062240600586
2025-04-07 12:58:36.640062094,-3.573498010635376
2025-04-07 12:58:36.655687094,-3.515915870666504
2025-04-07 12:58:36.671312094,-3.4293782711029053
2025-04-07 12:58:36.686937094,-3.3652286529541016
2025-04-07 12:58:36.702562094,-3.3544845581054688
2025-04-07 12:58:36.718187094,-3.4079928398132324
2025-04-07 12:58:36.733812094,-3.520981550216675
2025-04-07 12:58:36.749437094,-3.678490400314331
2025-04-07 12:58:36.765062094,-3.8594346046447754
2025-04-07 12:58:36.780687094,-4.0398077964782715
2025-04-07 12:58:36.796312094,-4.196357727050781
2025-04-07 12:58:36.811937094,-4.310937881469727
2025-04-07 12:58:36.827562094,-4.374471664428711
2025-04-07 12:58:36.843187094,-4.388934135437012
2025-04-07 12:58:36.858812094,-4.366092681884766
2025-04-07 12:58:36.874437094,-4.323097229003906
2025-04-07 12:58:36.890062094,-4.276883125305176
2025-04-07 12:58:36.905687094,-4.240092754364014
2025-04-07 12:58:36.921312094,-4.2198286056518555
2025-04-07 12:58:36.936937094,-4.218713283538818
2025-04-07 12:58:36.952562094,-4.237001895904541
2025-04-07 12:58:36.968187094,-4.274469375610352
2025-04-07 12:58:36.983812094,-4.331011772155762
2025-04-07 12:58:36.999437094,-4.406433582305908
2025-04-07 12:58:37.015062094,-4.501925468444824
2025-04-07 12:58:37.030687094,-4.623671531677246
2025-04-07 12:58:37.046312094,-4.784152507781982
2025-04-07 12:58:37.061937094,-4.997424602508545
2025-04-07 12:58:37.077562094,-5.27065372467041
2025-04-07 12:58:37.093187094,-5.597114562988281
2025-04-07 12:58:37.108812094,-5.954402446746826
2025-04-07 12:58:37.124437094,-6.30816125869751
2025-04-07 12:58:37.140062094,-6.61822509765625
2025-04-07 12:58:37.155687094,-6.843824863433838
2025-04-07 12:58:37.171312094,-6.94727897644043
2025-04-07 12:58:37.186937094,-6.897244453430176
2025-04-07 12:58:37.202562094,-6.671969413757324
2025-04-07 12:58:37.218187094,-6.262141227722168
2025-04-07 12:58:37.233812094,-5.672664165496826
2025-04-07 12:58:37.249437094,-4.922679424285889
2025-04-07 12:58:37.265062094,-4.043796062469482
2025-04-07 12:58:37.280687094,-3.077059268951416
2025-04-07 12:58:37.296312094,-2.0682764053344727
2025-04-07 12:58:37.311937094,-1.0610885620117188
2025-04-07 12:58:37.327562094,-0.08901119232177734
2025-04-07 12:58:37.343187094,0.8302559852600098
2025-04-07 12:58:37.358812094,1.693371295928955
2025-04-07 12:58:37.374437094,2.5008697509765625
2025-04-07 12:58:37.390062094,3.2455227375030518
2025-04-07 12:58:37.405687094,3.910907745361328
2025-04-07 12:58:37.421312094,4.48067045211792
2025-04-07 12:58:37.436937094,4.948946952819824
2025-04-07 12:58:37.452562094,5.324482440948486
2025-04-07 12:58:37.468187094,5.62701940536499
2025-04-07 12:58:37.483812094,5.87735652923584
2025-04-07 12:58:37.499437094,6.084333419799805
2025-04-07 12:58:37.515062094,6.2338972091674805
2025-04-07 12:58:37.530687094,6.286176681518555
2025-04-07 12:58:37.546312094,6.185615539550781
2025-04-07 12:58:37.561937094,5.882815361022949
2025-04-07 12:58:37.577562094,5.357123851776123
2025-04-07 12:58:37.593187094,4.628272533416748
2025-04-07 12:58:37.608812094,3.7544350624084473
2025-04-07 12:58:37.624437094,2.8207826614379883
2025-04-07 12:58:37.640062094,1.9234731197357178
2025-04-07 12:58:37.655687094,1.1531708240509033
2025-04-07 12:58:37.671312094,0.5812780857086182
2025-04-07 12:58:37.686937094,0.2509117126464844
2025-04-07 12:58:37.702562094,0.17349767684936523
2025-04-07 12:58:37.718187094,0.33074092864990234
2025-04-07 12:58:37.733812094,0.680844783782959
2025-04-07 12:58:37.749437094,1.167285680770874
2025-04-07 12:58:37.765062094,1.7282564640045166
2025-04-07 12:58:37.780687094,2.305126667022705
2025-04-07 12:58:37.796312094,2.848796844482422
2025-04-07 12:58:37.811937094,3.3234963417053223
2025-04-07 12:58:37.827562094,3.708101749420166
2025-04-07 12:58:37.843187094,3.9953625202178955
2025-04-07 12:58:37.858812094,4.189596652984619
2025-04-07 12:58:37.874437094,4.3034868240356445
2025-04-07 12:58:37.890062094,4.354559421539307
2025-04-07 12:58:37.905687094,4.361862659454346
2025-04-07 12:58:37.921312094,4.343217849731445
2025-04-07 12:58:37.936937094,4.313266754150391
2025-04-07 12:58:37.952562094,4.2823872566223145
2025-04-07 12:58:37.968187094,4.256422519683838
2025-04-07 12:58:37.983812094,4.237058639526367
2025-04-07 12:58:37.999437094,4.222634315490723
2025-04-07 12:58:38.015062094,4.209190368652344
2025-04-07 12:58:38.030687094,4.191578388214111
2025-04-07 12:58:38.046312094,4.164487361907959
2025-04-07 12:58:38.061937094,4.123271942138672
2025-04-07 12:58:38.077562094,4.064511775970459
2025-04-07 12:58:38.093187094,3.986283540725708
2025-04-07 12:58:38.108812094,3.888176918029785
2025-04-07 12:58:38.124437094,3.771122694015503
2025-04-07 12:58:38.140062094,3.6370959281921387
2025-04-07 12:58:38.155687094,3.4887561798095703
2025-04-07 12:58:38.171312094,3.329072952270508
2025-04-07 12:58:38.186937094,3.1609749794006348
2025-04-07 12:58:38.202562094,2.987062931060791
2025-04-07 12:58:38.218187094,2.8094236850738525
2025-04-07 12:58:38.233812094,2.629563808441162
2025-04-07 12:58:38.249437094,2.448432207107544
2025-04-07 12:58:38.265062094,2.266493082046509
2025-04-07 12:58:38.280687094,2.083836317062378
2025-04-07 12:58:38.296312094,1.9003164768218994
2025-04-07 12:58:38.311937094,1.7157008647918701
2025-04-07 12:58:38.327562094,1.5297999382019043
2025-04-07 12:58:38.343187094,1.3425633907318115
2025-04-07 12:58:38.358812094,1.1541314125061035
2025-04-07 12:58:38.374437094,0.9648512601852417
2025-04-07 12:58:38.390062094,0.7752689123153687
2025-04-07 12:58:38.405687094,0.5860925912857056
2025-04-07 12:58:38.421312094,0.3981271982192993
2025-04-07 12:58:38.436937094,0.21219360828399658
2025-04-07 12:58:38.452562094,0.029051780700683594
2025-04-07 12:58:38.468187094,-0.1506485939025879
2025-04-07 12:58:38.483812094,-0.32638537883758545
2025-04-07 12:58:38.499437094,-0.4977611303329468
2025-04-07 12:58:38.515062094,-0.6644878387451172
2025-04-07 12:58:38.530687094,-0.8263556957244873
2025-04-07 12:58:38.546312094,-0.9831899404525757
2025-04-07 12:58:38.561937094,-1.1348226070404053
2025-04-07 12:58:38.577562094,-1.2810863256454468
2025-04-07 12:58:38.593187094,-1.4218165874481201
2025-04-07 12:58:38.608812094,-1.5568619966506958
2025-04-07 12:58:38.624437094,-1.6860990524291992
2025-04-07 12:58:38.640062094,-1.8094239234924316
2025-04-07 12:58:38.655687094,-1.9267243146896362
2025-04-07 12:58:38.671312094,-2.0378670692443848
2025-04-07 12:58:38.686937094,-2.1427154541015625
2025-04-07 12:58:38.702562094,-2.241145133972168
2025-04-07 12:58:38.718187094,-2.3330421447753906
2025-04-07 12:58:38.733812094,-2.418304920196533
2025-04-07 12:58:38.749437094,-2.496863842010498
2025-04-07 12:58:38.765062094,-2.568695545196533
2025-04-07 12:58:38.780687094,-2.633833646774292
2025-04-07 12:58:38.796312094,-2.692378044128418
2025-04-07 12:58:38.811937094,-2.7444944381713867
2025-04-07 12:58:38.827562094,-2.7903928756713867
2025-04-07 12:58:38.843187094,-2.8303136825561523
2025-04-07 12:58:38.858812094,-2.864527702331543
2025-04-07 12:58:38.874437094,-2.893328905105591
2025-04-07 12:58:38.890062094,-2.916994571685791
2025-04-07 12:58:38.905687094,-2.9357333183288574
2025-04-07 12:58:38.921312094,-2.949643611907959
2025-04-07 12:58:38.936937094,-2.9587059020996094
2025-04-07 12:58:38.952562094,-2.962803363800049
2025-04-07 12:58:38.968187094,-2.9617574214935303
2025-04-07 12:58:38.983812094,-2.9553661346435547
2025-04-07 12:58:38.999437094,-2.943448066711426
2025-04-07 12:58:39.015062094,-2.925886631011963
2025-04-07 12:58:39.030687094,-2.902656078338623
2025-04-07 12:58:39.046312094,-2.8738245964050293
2025-04-07 12:58:39.061937094,-2.8395466804504395
2025-04-07 12:58:39.077562094,-2.800057888031006
2025-04-07 12:58:39.093187094,-2.755673885345459
2025-04-07 12:58:39.108812094,-2.7067830562591553
2025-04-07 12:58:39.124437094,-2.6538121700286865
2025-04-07 12:58:39.140062094,-2.5971791744232178
2025-04-07 12:58:39.155687094,-2.537254810333252
2025-04-07 12:58:39.171312094,-2.4743542671203613
2025-04-07 12:58:39.186937094,-2.4087493419647217
2025-04-07 12:58:39.202562094,-2.3406827449798584
2025-04-07 12:58:39.218187094,-2.2703704833984375
2025-04-07 12:58:39.233812094,-2.198002338409424
2025-04-07 12:58:39.249437094,-2.123749256134033
2025-04-07 12:58:39.265062094,-2.0477793216705322
2025-04-07 12:58:39.280687094,-1.9702715873718262
2025-04-07 12:58:39.296312094,-1.8914153575897217
2025-04-07 12:58:39.311937094,-1.8114043474197388
2025-04-07 12:58:39.327562094,-1.730431318283081
2025-04-07 12:58:39.343187094,-1.6486819982528687
2025-04-07 12:58:39.358812094,-1.5663292407989502
2025-04-07 12:58:39.374437094,-1.4835214614868164
2025-04-07 12:58:39.390062094,-1.400373935699463
2025-04-07 12:58:39.405687094,-1.3169749975204468
2025-04-07 12:58:39.421312094,-1.2334034442901611
2025-04-07 12:58:39.436937094,-1.14974045753479
2025-04-07 12:58:39.452562094,-1.0660778284072876
2025-04-07 12:58:39.468187094,-0.982524037361145
2025-04-07 12:58:39.483812094,-0.8992106318473816
2025-04-07 12:58:39.499437094,-0.8162956833839417
2025-04-07 12:58:39.515062094,-0.7339516878128052
2025-04-07 12:58:39.530687094,-0.6523460745811462
2025-04-07 12:58:39.546312094,-0.571627140045166
2025-04-07 12:58:39.561937094,-0.4919222593307495
2025-04-07 12:58:39.577562094,-0.41334423422813416
2025-04-07 12:58:39.593187094,-0.3359943628311157
2025-04-07 12:58:39.608812094,-0.2599610388278961
2025-04-07 12:58:39.624437094,-0.18531915545463562
2025-04-07 12:58:39.640062094,-0.11212929338216782
2025-04-07 12:58:39.655687094,-0.04044237732887268
2025-04-07 12:58:39.671312094,0.029692888259887695
2025-04-07 12:58:39.686937094,0.09822842478752136
2025-04-07 12:58:39.702562094,0.16511744260787964
2025-04-07 12:58:39.718187094,0.23031070828437805
2025-04-07 12:58:39.733812094,0.2937502861022949
2025-04-07 12:58:39.749437094,0.35536402463912964
2025-04-07 12:58:39.765062094,0.4150637090206146
2025-04-07 12:58:39.780687094,0.47275274991989136
2025-04-07 12:58:39.796312094,0.52834153175354
2025-04-07 12:58:39.811937094,0.5817576050758362
2025-04-07 12:58:39.827562094,0.6329472661018372
2025-04-07 12:58:39.843187094,0.6818766593933105
2025-04-07 12:58:39.858812094,0.7285311818122864
2025-04-07 12:58:39.874437094,0.7729178071022034
2025-04-07 12:58:39.890062094,0.8150695562362671
2025-04-07 12:58:39.905687094,0.8550400137901306
2025-04-07 12:58:39.921312094,0.8928831219673157
2025-04-07 12:58:39.936937094,0.9286338686943054
2025-04-07 12:58:39.952562094,0.96230149269104
2025-04-07 12:58:39.968187094,0.9938675165176392
2025-04-07 12:58:39.983812094,1.0232813358306885
2025-04-07 12:58:39.999437094,1.0504627227783203
2025-04-07 12:58:40.015062094,1.0753144025802612
2025-04-07 12:58:40.030687094,1.0977452993392944
2025-04-07 12:58:40.046312094,1.1176999807357788
2025-04-07 12:58:40.061937094,1.1351786851882935
2025-04-07 12:58:40.077562094,1.1502387523651123
2025-04-07 12:58:40.093187094,1.162976622581482
2025-04-07 12:58:40.108812094,1.173504114151001
2025-04-07 12:58:40.124437094,1.1819416284561157
2025-04-07 12:58:40.140062094,1.1884284019470215
2025-04-07 12:58:40.155687094,1.1931240558624268
2025-04-07 12:58:40.171312094,1.1961873769760132
2025-04-07 12:58:40.186937094,1.197741985321045
2025-04-07 12:58:40.202562094,1.197859525680542
2025-04-07 12:58:40.218187094,1.1965724229812622
2025-04-07 12:58:40.233812094,1.1938928365707397
2025-04-07 12:58:40.249437094,1.1898099184036255
2025-04-07 12:58:40.265062094,1.1842749118804932
2025-04-07 12:58:40.280687094,1.1771981716156006
2025-04-07 12:58:40.296312094,1.1684720516204834
2025-04-07 12:58:40.311937094,1.1580144166946411
2025-04-07 12:58:40.327562094,1.145815134048462
2025-04-07 12:58:40.343187094,1.1319630146026611
2025-04-07 12:58:40.358812094,1.1166437864303589
2025-04-07 12:58:40.374437094,1.1001356840133667
2025-04-07 12:58:40.390062094,1.082853078842163
2025-04-07 12:58:40.405687094,1.0653904676437378
2025-04-07 12:58:40.421312094,1.0484223365783691
2025-04-07 12:58:40.436937094,1.0324547290802002
2025-04-07 12:58:40.452562094,1.0176202058792114
2025-04-07 12:58:40.468187094,1.0036290884017944
2025-04-07 12:58:40.483812094,0.9898151755332947
2025-04-07 12:58:40.499437094,0.9752318263053894
2025-04-07 12:58:40.515062094,0.9588033556938171
2025-04-07 12:58:40.530687094,0.9395034909248352
2025-04-07 12:58:40.546312094,0.9165091514587402
2025-04-07 12:58:40.561937094,0.8892947435379028
2025-04-07 12:58:40.577562094,0.8576728105545044
2025-04-07 12:58:40.593187094,0.8218014240264893
2025-04-07 12:58:40.608812094,0.7821661233901978
2025-04-07 12:58:40.624437094,0.7395377159118652
2025-04-07 12:58:40.640062094,0.6949055194854736
2025-04-07 12:58:40.655687094,0.6493839025497437
2025-04-07 12:58:40.671312094,0.6041096448898315
2025-04-07 12:58:40.686937094,0.5601632595062256
2025-04-07 12:58:40.702562094,0.5185238122940063
2025-04-07 12:58:40.718187094,0.4800242781639099
2025-04-07 12:58:40.733812094,0.4452609121799469
2025-04-07 12:58:40.749437094,0.414450079202652
2025-04-07 12:58:40.765062094,0.3872840106487274
2025-04-07 12:58:40.780687094,0.36288225650787354
2025-04-07 12:58:40.796312094,0.33990204334259033
2025-04-07 12:58:40.811937094,0.3167737126350403
2025-04-07 12:58:40.827562094,0.291982501745224
2025-04-07 12:58:40.843187094,0.26432308554649353
2025-04-07 12:58:40.858812094,0.23306411504745483
2025-04-07 12:58:40.874437094,0.19800309836864471
2025-04-07 12:58:40.890062094,0.1594337821006775
2025-04-07 12:58:40.905687094,0.11805088818073273
2025-04-07 12:58:40.921312094,0.07482416182756424
2025-04-07 12:58:40.936937094,0.030870571732521057
2025-04-07 12:58:40.952562094,-0.012674778699874878
2025-04-07 12:58:40.968187094,-0.05478275194764137
2025-04-07 12:58:40.983812094,-0.09462383389472961
2025-04-07 12:58:40.999437094,-0.13161511719226837
2025-04-07 12:58:41.015062094,-0.16542235016822815
2025-04-07 12:58:41.030687094,-0.19593870639801025
2025-04-07 12:58:41.046312094,-0.22326506674289703
2025-04-07 12:58:41.061937094,-0.2476857304573059
2025-04-07 12:58:41.077562094,-0.2696240246295929
2025-04-07 12:58:41.093187094,-0.28958722949028015
2025-04-07 12:58:41.108812094,-0.3081103563308716
2025-04-07 12:58:41.124437094,-0.32569336891174316
2025-04-07 12:58:41.140062094,-0.3427383303642273
2025-04-07 12:58:41.155687094,-0.35950958728790283
2025-04-07 12:58:41.171312094,-0.3761290907859802
2025-04-07 12:58:41.186937094,-0.3925880193710327
2025-04-07 12:58:41.202562094,-0.4087604284286499
2025-04-07 12:58:41.218187094,-0.4244285821914673
2025-04-07 12:58:41.233812094,-0.4393194317817688
2025-04-07 12:58:41.249437094,-0.45313525199890137
2025-04-07 12:58:41.265062094,-0.4655781686306
2025-04-07 12:58:41.280687094,-0.4763796031475067
2025-04-07 12:58:41.296312094,-0.4853267967700958
2025-04-07 12:58:41.311937094,-0.4922703206539154
2025-04-07 12:58:41.327562094,-0.4971175789833069
2025-04-07 12:58:41.343187094,-0.49983569979667664
2025-04-07 12:58:41.358812094,-0.5004770755767822
2025-04-07 12:58:41.374437094,-0.4992106556892395
2025-04-07 12:58:41.390062094,-0.4963274300098419
2025-04-07 12:58:41.405687094,-0.4922017455101013
2025-04-07 12:58:41.421312094,-0.4872239828109741
2025-04-07 12:58:41.436937094,-0.48173221945762634
2025-04-07 12:58:41.452562094,-0.47596150636672974
2025-04-07 12:58:41.468187094,-0.47001758217811584
2025-04-07 12:58:41.483812094,-0.46387094259262085
2025-04-07 12:58:41.499437094,-0.4573708772659302
2025-04-07 12:58:41.515062094,-0.4502868056297302
2025-04-07 12:58:41.530687094,-0.4423772990703583
2025-04-07 12:58:41.546312094,-0.4334709346294403
2025-04-07 12:58:41.561937094,-0.4235225021839142
2025-04-07 12:58:41.577562094,-0.41262367367744446
2025-04-07 12:58:41.593187094,-0.4009780287742615
2025-04-07 12:58:41.608812094,-0.38884732127189636
2025-04-07 12:58:41.624437094,-0.3764686584472656
2025-04-07 12:58:41.640062094,-0.3639845550060272
2025-04-07 12:58:41.655687094,-0.35145121812820435
2025-04-07 12:58:41.671312094,-0.33893057703971863
2025-04-07 12:58:41.686937094,-0.3265882730484009
2025-04-07 12:58:41.702562094,-0.31471091508865356
2025-04-07 12:58:41.718187094,-0.30362647771835327
2025-04-07 12:58:41.733812094,-0.29357871413230896
2025-04-07 12:58:41.749437094,-0.28462767601013184
2025-04-07 12:58:41.765062094,-0.2766249477863312
2025-04-07 12:58:41.780687094,-0.26925402879714966
2025-04-07 12:58:41.796312094,-0.2621035873889923
2025-04-07 12:58:41.811937094,-0.2547559440135956
2025-04-07 12:58:41.827562094,-0.24686990678310394
2025-04-07 12:58:41.843187094,-0.23822873830795288
2025-04-07 12:58:41.858812094,-0.2287413775920868
2025-04-07 12:58:41.874437094,-0.21841703355312347
2025-04-07 12:58:41.890062094,-0.2073453813791275
2025-04-07 12:58:41.905687094,-0.19569078087806702
2025-04-07 12:58:41.921312094,-0.18367841839790344
2025-04-07 12:58:41.936937094,-0.17155545949935913
2025-04-07 12:58:41.952562094,-0.15953555703163147
2025-04-07 12:58:41.968187094,-0.1477484107017517
2025-04-07 12:58:41.983812094,-0.13621658086776733
2025-04-07 12:58:41.999437094,-0.12486575543880463
2025-04-07 12:58:42.015062094,-0.11354658007621765
2025-04-07 12:58:42.030687094,-0.10205840319395065
2025-04-07 12:58:42.046312094,-0.09019599854946136
2025-04-07 12:58:42.061937094,-0.07781627774238586
2025-04-07 12:58:42.077562094,-0.06488535553216934
2025-04-07 12:58:42.093187094,-0.051477573812007904
2025-04-07 12:58:42.108812094,-0.037734050303697586
2025-04-07 12:58:42.124437094,-0.02381196990609169
2025-04-07 12:58:42.140062094,-0.009845796972513199
2025-04-07 12:58:42.155687094,0.004075806587934494
2025-04-07 12:58:42.171312094,0.017910316586494446
2025-04-07 12:58:42.186937094,0.031638938933610916
2025-04-07 12:58:42.202562094,0.045241642743349075
2025-04-07 12:58:42.218187094,0.05868062004446983
2025-04-07 12:58:42.233812094,0.0718858614563942
2025-04-07 12:58:42.249437094,0.08474752306938171
2025-04-07 12:58:42.265062094,0.09712539613246918
2025-04-07 12:58:42.280687094,0.10887154936790466
2025-04-07 12:58:42.296312094,0.11985697597265244
2025-04-07 12:58:42.311937094,0.12999019026756287
2025-04-07 12:58:42.327562094,0.139219269156456
2025-04-07 12:58:42.343187094,0.1475246399641037
2025-04-07 12:58:42.358812094,0.15491050481796265
2025-04-07 12:58:42.374437094,0.16139346361160278
2025-04-07 12:58:42.390062094,0.1669871062040329
2025-04-07 12:58:42.405687094,0.1716865450143814
2025-04-07 12:58:42.421312094,0.17546772956848145
2025-04-07 12:58:42.436937094,0.17831307649612427
2025-04-07 12:58:42.452562094,0.18024861812591553
2025-04-07 12:58:42.468187094,0.18136005103588104
2025-04-07 12:58:42.483812094,0.18177160620689392
2025-04-07 12:58:42.499437094,0.18160277605056763
2025-04-07 12:58:42.515062094,0.18093469738960266
2025-04-07 12:58:42.530687094,0.17982082068920135
2025-04-07 12:58:42.546312094,0.17835038900375366
2025-04-07 12:58:42.561937094,0.17671091854572296
2025-04-07 12:58:42.577562094,0.17517884075641632
2025-04-07 12:58:42.593187094,0.1740390658378601
2025-04-07 12:58:42.608812094,0.17348994314670563
2025-04-07 12:58:42.624437094,0.17357707023620605
2025-04-07 12:58:42.640062094,0.17417827248573303
2025-04-07 12:58:42.655687094,0.175039604306221
2025-04-07 12:58:42.671312094,0.17583145201206207
2025-04-07 12:58:42.686937094,0.17620274424552917
2025-04-07 12:58:42.702562094,0.17585018277168274
2025-04-07 12:58:42.718187094,0.17461168766021729
2025-04-07 12:58:42.733812094,0.172530859708786
2025-04-07 12:58:42.749437094,0.169829860329628
2025-04-07 12:58:42.765062094,0.16681186854839325
2025-04-07 12:58:42.780687094,0.16376587748527527
2025-04-07 12:58:42.796312094,0.16091123223304749
2025-04-07 12:58:42.811937094,0.15837575495243073
2025-04-07 12:58:42.827562094,0.1561909019947052
2025-04-07 12:58:42.843187094,0.15428267419338226
2025-04-07 12:58:42.858812094,0.15244469046592712
2025-04-07 12:58:42.874437094,0.15032707154750824
2025-04-07 12:58:42.890062094,0.14748810231685638
2025-04-07 12:58:42.905687094,0.1434953808784485
2025-04-07 12:58:42.921312094,0.13803212344646454
2025-04-07 12:58:42.936937094,0.13097363710403442
2025-04-07 12:58:42.952562094,0.12240467965602875
2025-04-07 12:58:42.968187094,0.11258678138256073
2025-04-07 12:58:42.983812094,0.10193084180355072
2025-04-07 12:58:42.999437094,0.09100284427404404
2025-04-07 12:58:43.015062094,0.08052083849906921
2025-04-07 12:58:43.030687094,0.07128563523292542
2025-04-07 12:58:43.046312094,0.06403356790542603
2025-04-07 12:58:43.061937094,0.059252187609672546
2025-04-07 12:58:43.077562094,0.05702819675207138
2025-04-07 12:58:43.093187094,0.05698057636618614
2025-04-07 12:58:43.108812094,0.05827724561095238
2025-04-07 12:58:43.124437094,0.05972585082054138
2025-04-07 12:58:43.140062094,0.05996769666671753
2025-04-07 12:58:43.155687094,0.057753413915634155
2025-04-07 12:58:43.171312094,0.05218689143657684
2025-04-07 12:58:43.186937094,0.04286383464932442
2025-04-07 12:58:43.202562094,0.029917225241661072
2025-04-07 12:58:43.218187094,0.013981044292449951
2025-04-07 12:58:43.233812094,-0.003924529999494553
2025-04-07 12:58:43.249437094,-0.02256123535335064
2025-04-07 12:58:43.265062094,-0.04065506160259247
2025-04-07 12:58:43.280687094,-0.05705653131008148
2025-04-07 12:58:43.296312094,-0.07085905224084854
2025-04-07 12:58:43.311937094,-0.08146384358406067
2025-04-07 12:58:43.327562094,-0.08858504146337509
2025-04-07 12:58:43.343187094,-0.092211052775383
2025-04-07 12:58:43.358812094,-0.09255905449390411
2025-04-07 12:58:43.374437094,-0.09005005657672882
2025-04-07 12:58:43.390062094,-0.08530262112617493
2025-04-07 12:58:43.405687094,-0.07912428677082062
2025-04-07 12:58:43.421312094,-0.07247892767190933
2025-04-07 12:58:43.436937094,-0.06641151756048203
2025-04-07 12:58:43.452562094,-0.06192275509238243
2025-04-07 12:58:43.468187094,-0.05982198566198349
2025-04-07 12:58:43.483812094,-0.06060842424631119
2025-04-07 12:58:43.499437094,-0.06441010534763336
2025-04-07 12:58:43.515062094,-0.07098419964313507
2025-04-07 12:58:43.530687094,-0.0797649621963501
2025-04-07 12:58:43.546312094,-0.08993752300739288
2025-04-07 12:58:43.561937094,-0.10052648931741714
2025-04-07 12:58:43.577562094,-0.11049696803092957
